tiempo_s,ppg_suavizada
24.75831151008606,-66748.37775251566
24.768434047698975,-66929.57157172327
24.80016255378723,-67076.48045555974
24.80122208595276,-67191.44888691182
24.823705911636353,-67276.82134866629
24.85638165473938,-67334.94232370991
24.862959623336792,-67368.15629492943
24.881491899490356,-67378.80774521161
24.913405179977417,-67369.24115744323
24.922393321990967,-67341.80101451103
24.94899272918701,-67298.8317993018
24.96253776550293,-67242.67799470227
24.984960556030273,-67175.68408359922
25.033283710479736,-67068.97012362703
25.042286157608032,-66993.02918956112
25.04902219772339,-66914.3842719787
25.07204556465149,-66835.88461538528
25.079642295837402,-66758.15831044024
25.112552165985107,-66684.06662087979
25.12547278404236,-66616.28605769295
25.151044845581055,-66554.87396978088
25.169230222702026,-66501.66174450616
25.17950439453125,-66459.6122939567
25.202098846435547,-66430.70295329737
25.241552591323853,-66418.0817307699
25.242478132247925,-66423.25515109957
25.28179144859314,-66443.75961538526
25.282540798187256,-66473.53193681383
25.303049087524414,-66505.19127747319
25.329368591308594,-66534.56250000064
25.339296102523804,-66560.06421703362
25.36303472518921,-66582.57760989077
25.398494720458984,-66602.53434066
25.399474382400513,-66621.8324175831
25.41958975791931,-66641.86538461605
25.449095964431763,-66662.71085164903
25.46620488166809,-66683.35370879187
25.498496770858765,-66705.39354395671
25.49919056892395,-66729.38427197868
25.52449631690979,-66755.52163461605
25.55415987968445,-66783.85233516552
25.573403120040894,-66813.39594780286
25.580474615097046,-66841.67857142925
25.603803873062134,-66868.58550824242
25.62343406677246,-66893.47355769297
25.64570188522339,-66917.45535714351
25.672157526016235,-66943.43406593474
25.68452787399292,-66975.70947802263
25.71450448036194,-67013.63015109957
25.72857403755188,-67052.24072802265
25.741799116134644,-67084.2321428578
25.772643327713013,-67101.92548076989
25.79223108291626,-67101.71668956112
25.799545288085938,-67083.26167582485
25.825209856033325,-67048.06043956113
25.84298300743103,-66998.20089285783
25.875423669815063,-66933.43956044024
25.894761323928833,-66855.47733516549
25.899622678756714,-66766.14835164903
25.93240785598755,-66669.056318682
25.968129634857178,-66567.50515109957
25.96875524520874,-66464.60027472593
25.990644216537476,-66363.24484890176
26.000184059143066,-66266.03365384681
26.026094436645508,-66175.21222527538
26.04899263381958,-66092.4450549457
26.05900001525879,-66019.37706044021
26.082799434661865,-65957.10061813254
26.110968351364136,-65908.78434066
26.128256797790527,-65876.82520604462
26.14015030860901,-65864.42032967097
26.164344310760498,-65872.74244505563
26.18062996864319,-65898.20364011056
26.21257472038269,-65932.66380494574
26.231526613235474,-65967.970123627
26.23978877067566,-66000.26407967099
26.262743711471558,-66029.65865384683
26.279470443725586,-66059.55322802265
26.311779022216797,-66090.54361263804
26.33210039138794,-66122.50068681386
26.340479135513306,-66155.89457417649
26.3660671710968,-66189.81524725341
26.385547161102295,-66226.16586538525
26.421058416366577,-66263.16174450614
26.421971559524536,-66302.9927884622
26.442636251449585,-66345.27644230834
26.479180812835693,-66389.5305631875
26.479977130889893,-66436.63701923142
26.50209927558899,-66484.75103022045
26.529701709747314,-66531.76133241823
26.54073190689087,-66577.65693681384
26.562708616256714,-66626.89800824242
26.597126007080078,-66683.66208791276
26.598649501800537,-66747.16655219847
26.62241005897522,-66810.55597527539
26.648671627044678,-66866.61057692375
26.667566299438477,-66909.33894230836
26.70242667198181,-66934.75961538526
26.703161239624023,-66943.01510989077
26.72229552268982,-66935.20364011054
26.74562692642212,-66914.57039835231
26.76906394958496,-66883.19848901167
26.778817653656006,-66841.69951923144
26.806073427200317,-66790.32520604461
26.828754425048828,-66732.28537087982
26.861156225204468,-66670.98351648418
26.861887216567993,-66610.20432692375
26.882230281829834,-66552.74622252813
26.898566484451294,-66498.10508241825
26.929487228393555,-66448.99347527536
26.94559121131897,-66406.45913461605
26.964792013168335,-66372.07623626439
26.99411678314209,-66348.16208791274
26.99844479560852,-66336.11675824242
27.034931898117065,-66338.04361263802
27.04622507095337,-66358.48969780286
27.07750153541565,-66398.5092719787
27.078264474868774,-66452.35542582483
27.116936445236206,-66512.05734890177
27.117704391479492,-66569.77644230834
27.15513014793396,-66622.43269230836
27.158015966415405,-66670.54532967102
27.189815282821655,-66714.57451923144
27.21014165878296,-66754.94402472595
27.218942165374756,-66792.24896978088
27.24849796295166,-66827.31971153912
27.268121004104614,-66858.53399725341
27.27869725227356,-66886.400068682
27.30357527732849,-66911.82005494573
27.3433678150177,-66936.23695055014
27.344364166259766,-66961.1287774732
27.37977933883667,-66987.06284340726
27.380494832992554,-67015.01476648418
27.417520999908447,-67046.92925824244
27.41838049888611,-67083.37465659407
27.43864345550537,-67120.94059066002
27.47488808631897,-67154.60611263804
27.479094982147217,-67178.54189560506
27.512752532958984,-67189.9467719787
27.518470287322998,-67186.4931318688
27.546914100646973,-67168.82348901167
27.558531761169434,-67137.78125000068
27.603334665298462,-67095.29979395671
27.604455709457397,-67044.7596153853
27.61995768547058,-66986.83413461605
27.647768020629883,-66922.9041895611
27.657474756240845,-66855.94402472595
27.688183307647705,-66787.6696428578
27.73287296295166,-66720.26545329735
27.733428239822388,-66656.30185439628
27.740583181381226,-66597.42891483582
27.766054153442383,-66543.1445741765
27.787137746810913,-66495.99519230837
27.797409296035767,-66457.82314560507
27.820852994918823,-66430.39114011056
27.841230869293213,-66415.43715659407
27.875028610229492,-66414.69436813254
27.87709879875183,-66429.82211538526
27.905022859573364,-66460.22596153912
27.928280353546143,-66499.11813186879
27.938749313354492,-66539.7798763743
27.961007595062256,-66575.96085164901
27.979569911956787,-66607.54807692375
28.008954286575317,-66635.48969780286
28.028671503067017,-66661.4309752754
28.037750720977783,-66686.39320055011
28.05780577659607,-66710.52129120947
28.076940536499023,-66733.95501373694
28.10924530029297,-66756.38427197869
28.129313468933105,-66777.65247252813
28.137091636657715,-66798.33035714354
28.158523321151733,-66820.9886675831
28.177254676818848,-66849.78914835231
28.20813488960266,-66887.44471153912
28.22771430015564,-66931.22836538528
28.25600028038025,-66974.54155219847
28.256566524505615,-67010.79155219847
28.28224229812622,-67036.49656593474
28.30368685722351,-67049.09924450616
28.323232173919678,-67047.30357142925
28.353131771087646,-67031.91277472592
28.35714030265808,-67004.32864011056
28.378236293792725,-66965.47390109955
28.40171241760254,-66916.52335164901
28.417454481124878,-66858.28468406662
28.444141387939453,-66793.44299450616
28.457153797149658,-66724.57280219848
28.482044458389282,-66654.4302884622
28.49767804145813,-66583.32486263804
28.53170680999756,-66513.94917582482
28.546526193618774,-66448.15384615448
28.575319051742554,-66387.89457417649
28.575802326202393,-66335.72870879187
28.595607042312622,-66293.5034340666
28.631174087524414,-66263.87740384681
28.6460599899292,-66249.85679945123
28.66802978515625,-66253.22905219845
28.67598605155945,-66273.1579670336
28.695351600646973,-66305.77884615451
28.731885194778442,-66344.90487637429
28.747051239013672,-66384.55185439627
28.758455276489258,-66423.36366758308
28.776951789855957,-66461.24965659407
28.79544186592102,-66498.01030219847
28.83155608177185,-66536.08688186877
28.846348762512207,-66576.51751373692
28.868314027786255,-66619.70913461606
28.87629532814026,-66666.06799450614
28.895543336868286,-66715.95776098967
28.929286241531372,-66768.8777472534
28.943325996398926,-66825.46600274793
28.968253135681152,-66887.1136675831
28.976158142089844,-66955.75480769295
28.995574712753296,-67032.17925824242
29.031044483184814,-67113.82657967102
29.049335718154907,-67194.61229395671
29.056017637252808,-67268.08722527538
29.081395864486694,-67328.69024725343
29.096592664718628,-67372.97596153912
29.1315701007843,-67398.89697802263
29.147012948989868,-67406.27472527542
29.160496950149536,-67393.22699175891
29.179322957992554,-67360.82726648418
29.19559359550476,-67311.94024725341
29.226563453674316,-67250.6541895611
29.24197554588318,-67179.83310439627
29.2674503326416,-67103.97767857209
29.275357961654663,-67026.18269230837
29.295531272888184,-66947.85199175891
29.322542428970337,-66873.25309066
29.335365533828735,-66804.0604395611
29.35700297355652,-66742.0710851655
29.379445791244507,-66689.27541208857
29.396060705184937,-66646.90899725341
29.4202938079834,-66616.48214285781
29.44129776954651,-66600.80975274791
29.454436779022217,-66602.33379120946
29.474199533462524,-66619.84684066002
29.494502544403076,-66647.54876373694
29.525150060653687,-66679.55597527539
29.541128158569336,-66711.5085851655
29.554388523101807,-66740.81799450617
29.574188470840454,-66766.73660714352
29.594518661499023,-66789.84340659405
29.62492346763611,-66811.21085164901
29.64020323753357,-66830.79739011056
29.654340267181396,-66848.08344780286
29.67411470413208,-66864.97767857209
29.694246292114258,-66886.40247252815
29.732659101486206,-66916.80666208858
29.734675645828247,-66955.90178571496
29.754253387451172,-66998.32760989078
29.77540111541748,-67034.6957417589
29.794458150863647,-67059.46737637429
29.82695984840393,-67070.23420329737
29.843167781829834,-67064.62053571494
29.854570150375366,-67043.13427197869
29.8747501373291,-67006.53434066
29.89445662498474,-66955.67719780287
29.925209283828735,-66891.8725961545
29.940004587173462,-66817.44299450616
29.954787969589233,-66736.34100274793
29.975757360458374,-66650.84890109955
29.994513034820557,-66565.0916895611
30.03138256072998,-66482.21222527539
30.034960746765137,-66404.5295329677
30.055379629135132,-66332.23042582483
30.079761028289795,-66266.50995879187
30.094388723373413,-66209.69024725341
30.127405405044556,-66163.3310439567
30.14135980606079,-66129.61881868199
30.175589084625244,-66110.07177197869
30.17627453804016,-66106.86195055013
30.194289207458496,-66121.73282967099
30.2253520488739,-66151.1225961545
30.240434885025024,-66189.63289835231
30.275710821151733,-66229.00274725338
30.276646375656128,-66265.75583791274
30.29619789123535,-66301.54945055013
30.3275785446167,-66335.77712912155
30.341927766799927,-66369.31387362705
30.353267669677734,-66401.88804945121
30.3736674785614,-66433.46978022046
30.393538236618042,-66463.77129120944
30.425073862075806,-66494.420329671
30.440316200256348,-66524.6850961545
30.45348024368286,-66555.89835164903
30.4740571975708,-66587.48523351716
30.493653535842896,-66621.02232142923
30.525100469589233,-66657.77094780288
30.540878772735596,-66700.13495879185
30.553452014923096,-66747.08413461605
30.573810815811157,-66793.84065934134
30.59350562095642,-66834.24072802265
30.624757528305054,-66862.4982829677
30.640323877334595,-66875.58344780287
30.653682470321655,-66871.9247939567
30.674304008483887,-66852.76476648418
30.693460702896118,-66820.16517857209
30.72515082359314,-66775.26957417649
30.740920782089233,-66718.94917582485
30.753711462020874,-66651.46531593475
30.77414059638977,-66576.58310439627
30.793570280075073,-66497.6229395611
30.825136184692383,-66418.14285714351
30.840461492538452,-66340.38427197869
30.853657245635986,-66266.88186813252
30.874032258987427,-66200.82967033032
30.893489837646484,-66143.01579670396
30.931574821472168,-66095.76682692375
30.933778285980225,-66059.3149038468
30.954522371292114,-66037.53228022043
30.982086658477783,-66031.53502747318
30.99606466293335,-66043.28468406657
31.027374267578125,-66073.40865384683
31.043298721313477,-66120.87843406659
31.05334997177124,-66179.66655219847
31.076067209243774,-66241.98179945118
31.09341263771057,-66302.71875000064
31.13077449798584,-66360.86332417649
31.133774280548096,-66415.38770604462
31.154599905014038,-66466.3159340666
31.178807497024536,-66512.52300824242
31.19241714477539,-66555.08825549515
31.227112531661987,-66591.50789835233
31.24238681793213,-66621.81353022043
31.252593755722046,-66647.39114011056
31.280547857284546,-66670.53090659407
31.29241633415222,-66693.78021978088
31.33120346069336,-66718.06078296769
31.333064317703247,-66744.38770604462
31.353013515472412,-66773.5247252754
31.375203371047974,-66804.65178571494
31.392380237579346,-66836.28021978088
31.427058219909668,-66869.79842033035
31.44034242630005,-66909.53262362703
31.452401638031006,-66958.07383241826
31.473695278167725,-67012.88118131935
31.492563247680664,-67068.95364011056
31.52532434463501,-67119.56559066
31.540685415267944,-67160.84546703364
31.552521467208862,-67189.27266483585
31.574804067611694,-67201.98523351715
31.59259796142578,-67198.33070055011
31.62477207183838,-67177.87190934134
31.639511346817017,-67139.84100274793
31.652493715286255,-67085.05837912153
31.672930002212524,-67015.91998626442
31.692410230636597,-66936.99450549517
31.725351333618164,-66850.32829670397
31.740918397903442,-66761.3526785721
31.752397775650024,-66673.83241758308
31.774128437042236,-66591.30425824241
31.792250394821167,-66516.492101649
31.828261613845825,-66451.2942994512
31.83227276802063,-66397.75480769297
31.852785110473633,-66356.59993131935
31.878511667251587,-66329.53708791276
31.89326548576355,-66318.12671703362
31.92135715484619,-66324.64320055011
31.932485580444336,-66350.12190934132
31.952539443969727,-66390.25309066002
31.97532558441162,-66437.10611263802
31.992371559143066,-66483.6287774732
32.02535605430603,-66525.26820055011
32.040602922439575,-66562.63015109957
32.05130314826965,-66595.93131868198
32.07371520996094,-66625.36744505561
32.09133696556091,-66650.84993131935
32.125174045562744,-66671.12122252813
32.14099073410034,-66687.41140109957
32.15135979652405,-66701.35817307759
32.17480540275574,-66715.64354395673
32.191280126571655,-66731.96291208858
32.23093223571777,-66750.24587912156
32.23156976699829,-66770.44230769298
32.25387239456177,-66792.13049450617
32.281424045562744,-66814.22767857209
32.29457187652588,-66835.95776098968
32.32703733444214,-66857.24141483584
32.3416223526001,-66879.12500000067
32.351507902145386,-66903.04910714352
32.37701988220215,-66932.14629120944
32.39199233055115,-66966.94917582485
32.419628620147705,-67003.70810439628
32.441317558288574,-67037.92273351716
32.467212200164795,-67063.70879120947
32.493061780929565,-67076.91208791276
32.49445176124573,-67076.75755494574
32.51471447944641,-67063.42135989078
32.54003858566284,-67038.53674450616
32.55644130706787,-67001.46462912153
32.58191394805908,-66953.64114011054
32.59641695022583,-66895.78502747319
32.61655592918396,-66830.14010989078
32.65495014190674,-66759.9728708798
32.655566692352295,-66686.5659340666
32.67496991157532,-66612.47939560506
32.701351165771484,-66538.96943681387
32.72233772277832,-66468.10027472593
32.749510049819946,-66401.88083791274
32.75145149230957,-66341.08585164903
32.77305889129639,-66287.54155219847
32.795480489730835,-66243.83688186879
32.81677484512329,-66211.40212912155
32.8510684967041,-66193.52197802265
32.85186457633972,-66191.65247252813
32.87356233596802,-66205.86607142923
32.90799140930176,-66230.86092033033
32.91175293922424,-66259.83001373691
32.93157124519348,-66289.64594780286
32.96647667884827,-66317.97802197868
32.98622369766235,-66346.35405219847
32.996737003326416,-66376.82280219847
33.02296423912048,-66408.45535714354
33.04603815078735,-66440.71600274793
33.05333852767944,-66473.14423076989
33.07839894294739,-66505.85096153914
33.096187114715576,-66538.5285027479
33.13263463973999,-66571.72149725341
33.13341999053955,-66605.44505494571
33.15433359146118,-66639.19780219847
33.18935775756836,-66673.34993131936
33.1902801990509,-66707.02335164903
33.21088480949402,-66739.89388736332
33.24799609184265,-66771.76785714351
33.25074577331543,-66802.1644917589
33.277652978897095,-66831.74107142925
33.305288314819336,-66861.62087912152
33.32619667053223,-66892.5549450556
33.331541776657104,-66925.30597527539
33.36675548553467,-66959.82142857209
33.37092900276184,-66994.9945054952
33.39423656463623,-67033.2221840666
33.41667819023132,-67078.24553571496
33.4478120803833,-67130.37190934134
33.45371413230896,-67185.86504120946
33.478572368621826,-67239.4721840666
33.49749565124512,-67285.63839285781
33.53094506263733,-67320.337568682
33.53168821334839,-67343.66895604462
33.551066160202026,-67355.28434066003
33.58585548400879,-67354.14835164903
33.606162786483765,-67340.79017857209
33.61385893821716,-67315.93784340727
33.638216972351074,-67280.52918956112
33.65786838531494,-67235.90728022046
33.69516849517822,-67184.47561813255
33.696624755859375,-67127.46462912155
33.717609882354736,-67068.1696428578
33.73144817352295,-67008.54807692375
33.75279879570007,-66950.27060439627
33.77243614196777,-66895.2534340666
33.80308485031128,-66846.20776098967
33.819093465805054,-66803.99141483584
33.83274865150452,-66769.84821428638
33.85385489463806,-66746.6490384622
33.87299299240112,-66737.11641483582
33.90527629852295,-66744.28434066002
33.92492127418518,-66765.97836538528
33.93284273147583,-66796.47802197868
33.95907211303711,-66830.24965659407
33.98094201087952,-66863.89114011054
33.99045467376709,-66896.45501373695
34.015382289886475,-66927.78743131936
34.03846549987793,-66957.61126373691
34.06037354469299,-66985.60061813252
34.069575548172,-67012.11195055011
34.08957028388977,-67036.93234890176
34.12226676940918,-67058.98489011056
34.14212727546692,-67077.67170329738
34.149879455566406,-67094.79670329738
34.171098709106445,-67103.11232845119
34.19051456451416,-67119.05874846464
34.22136163711548,-67134.18266782364
34.24255967140198,-67148.59281421566
34.252235889434814,-67162.39791532811
34.27586102485657,-67175.70669884846
34.29528617858887,-67188.62789246411
34.329468965530396,-67201.27022386252
34.330361127853394,-67213.74242073114
34.350797176361084,-67226.15321075739
34.37964844703674,-67238.6113216287
34.39755868911743,-67251.22548103252
34.41004204750061,-67264.10441665631
