   4.0842117e-01   4.5395529e-01   6.5612052e-02   4.5986589e-01   3.2041691e-01   5.4066813e-02   1.4560504e-01   2.8085601e-01   4.9911594e-01   5.2764201e-01   1.6072744e-01   6.0394046e-01   6.3395071e-01   4.3477822e-01   6.2895379e-01   3.3647989e-01   5.1314053e-01   7.7236870e-01   6.9836355e-01   7.4528294e-01   5.5668391e-01   2.0994623e-01   5.7993188e-01   5.8564069e-01   4.2128848e-01   4.2406781e-01   3.9204646e-01   2.0388187e-01   3.3480109e-01   9.1949276e-02   3.5867276e-01   2.0859926e-02   1.4269878e-01   2.6616769e-02   5.1390749e-02   4.1384756e-01   3.4882674e-01   1.5925595e-01   4.4333136e-01  -7.8822157e-02   2.7281784e-02   6.2217898e-03   3.0931207e-01   5.3884289e-01   4.4936851e-01   8.1550367e-01   1.0081038e+00   1.1640228e+00   1.0919706e+00   8.5191961e-01   3.4987695e-01   2.8900388e-01   1.3989680e-02  -4.9496532e-01  -5.9869325e-01  -3.1014001e-01   2.0021096e-01   7.7218164e-02   2.9337080e-01   1.1337981e-01   3.7784429e-01   1.3049524e-01   2.5666312e-01   3.5395988e-01   4.5061006e-01   4.8554107e-01   2.8024004e-01   7.6681418e-02   8.2753119e-02   1.3759716e-01   4.2993858e-01   1.3745796e-01   4.1819621e-01   1.3355320e-01   4.7715945e-01   1.8825644e-01   1.1229910e-01   1.4028032e-01   3.2349765e-01   2.5285666e-01   1.9849686e-01   4.5025424e-01   3.4536274e-01   3.4548327e-01   5.4710907e-01   2.4932252e-01   5.0289390e-01   5.1904910e-01   3.5029825e-01   4.5054610e-01   1.9979155e-01   1.7273777e-01   3.9505979e-01   5.0314294e-01   5.6446297e-01   1.4630904e-01   3.4966607e-01   2.8384786e-01   3.9001882e-02   1.8974776e-01   9.4650476e-02   4.0731176e-01   1.6238718e-01   2.6765640e-01   8.3954308e-02   3.0099097e-01   1.3148564e-01   3.2703955e-01   3.4460725e-01   3.7407580e-01   2.2527080e-01   4.1910689e-02   1.1448848e-01   4.5666868e-01   7.6189009e-02   4.1290849e-01   2.6917122e-01   4.9806736e-01   3.9087764e-02   2.2133913e-01   5.3326385e-02   4.8094904e-01   2.3171121e-03   3.8745523e-01   4.0865161e-01   4.3434735e-01   4.2217923e-02   1.9989132e-01   1.3099452e-01   4.0109356e-01   2.1782556e-01   4.5850176e-01   9.5160802e-02   1.3719807e-01   7.9125422e-02   7.5449534e-02   4.5500863e-01   3.3505003e-01   3.5685100e-01   1.9112147e-01   5.8188279e-01   5.0311796e-01   4.0428975e-01   5.2216149e-01   5.0316390e-01   3.5248429e-01   4.2221796e-01   3.2719619e-01   3.2076745e-01   3.1206666e-01   3.6400077e-01   1.4347128e-01   5.3327896e-01   5.1759133e-01   2.6591227e-01   2.5239468e-01   1.7592185e-01   4.5638286e-01   1.9027311e-01   6.0544880e-02   3.9436332e-01   1.9840049e-01   1.2367050e-01   2.0407472e-01   4.9639692e-02   6.6692861e-02   4.3924563e-01   3.8202207e-01   9.5513902e-02  -1.5466767e-01   4.3943629e-02   3.1782222e-01   7.6652922e-01   5.7832319e-01   8.0682264e-01   9.2536130e-01   1.0618459e+00   8.4043746e-01   5.3573739e-01   1.7461440e-01  -4.0054876e-02  -4.2811078e-01  -2.8584569e-01  -4.6484453e-01   6.3726700e-02  -1.2191212e-03   1.8497922e-01   3.1428312e-01   3.9232448e-01   4.3510563e-02   4.6837758e-01   3.9227786e-01   2.4855425e-01   2.2382465e-01   2.3002415e-01   1.6054393e-01   2.6236044e-01   2.6422882e-01   4.1839381e-01   4.0773258e-01   3.3321286e-01   2.0109541e-01   4.1831786e-01   2.7967735e-01   1.8936503e-01   4.8423917e-01   4.5344672e-01   2.9129040e-01   3.3390465e-01   3.2836228e-01   1.5660184e-01   2.2124463e-01   3.2397392e-01   2.2164709e-01   5.4644818e-01   2.3956670e-01   2.7303622e-01   2.5198930e-01   2.7569656e-01   3.6361205e-01   2.8521216e-01   5.7524914e-01   3.1256132e-01   1.7376409e-01   5.1769472e-01   5.3902673e-01   2.5248583e-01   7.6746052e-02   1.4259167e-01   2.1452941e-01   3.0422770e-01   1.3449570e-01   3.0255149e-01   3.5560789e-01   1.1087337e-01   5.8708825e-02   1.4833794e-01   1.5938915e-01   2.1208338e-01   2.5392914e-01   4.2757899e-02   1.3124112e-01   4.0050731e-01   1.4610139e-02   4.6442707e-01   3.6516543e-01   2.4430449e-01   2.8926253e-01   1.1864179e-01   2.2942441e-01   4.8154427e-01   2.7340286e-01   2.6056792e-01   1.1579719e-01   2.4444887e-01   3.1203004e-01   3.4062709e-01   1.9881693e-01   1.8583697e-01   4.9716897e-01   2.3106721e-02   4.4788061e-01   4.6299935e-01   4.0550719e-01   6.9718663e-02   1.7613333e-01   2.4959932e-01   4.5850804e-01   2.2364380e-01   5.5270414e-01   2.8219449e-01   5.9241540e-01   5.4934686e-01   7.0402680e-01   6.5977843e-01   7.1739700e-01   6.7427481e-01   3.5917192e-01   5.0474015e-01   2.1754898e-01   9.7191377e-02   4.1723487e-01   2.7049144e-01   2.4772943e-01   4.5942327e-01   3.1128926e-01   3.1448291e-01   4.3466466e-01   4.0698200e-01   2.9189183e-01   9.4286093e-02   1.2208465e-01   4.4466840e-01   1.5043291e-02   2.1317103e-01  -1.2081625e-02   2.9724993e-01   1.7178980e-01   1.7678948e-01   3.7678713e-01   3.8574164e-01   9.1160742e-01   8.0652630e-01   8.7658902e-01   9.9811306e-01   5.2294128e-01   6.2093868e-01   3.5792609e-01   4.7660474e-02  -5.0133847e-01  -3.2838946e-01  -3.0002456e-01   2.0682626e-01   2.3152105e-01   4.0090221e-01   2.2837269e-01   2.1840651e-01   4.1560458e-01   4.5419506e-02   7.1007022e-02   9.1852744e-02   2.0136426e-01   4.2232215e-01   4.0905139e-01   3.8341706e-02   2.0847192e-01   2.7301787e-01   2.1871661e-01   3.3948374e-01   3.2577739e-01   1.5851967e-01   2.2909014e-01   2.1745037e-02   5.0677026e-01   9.9059518e-02   6.9320405e-02   2.0887197e-01   1.3389913e-01   2.9757452e-01   2.4036818e-01   5.6432747e-01   5.6656903e-01   1.5063228e-01   5.1111361e-01   2.9463504e-01   3.7805309e-01   4.3579986e-01   6.1713120e-01   3.3853307e-01   6.0508556e-01   2.4818510e-01   4.3190531e-01   3.9842366e-01   3.1871577e-01   3.8210361e-01   3.5445040e-01   1.0262555e-01   7.4176691e-02   5.0631986e-01   8.8950364e-02   1.7430354e-02   2.8059990e-01   4.4093325e-01   3.3458765e-01   9.5216634e-02   1.8445827e-01   2.3036297e-01   4.9081898e-01   7.8202476e-02   4.2776140e-01   3.2238227e-01   1.8813611e-01   9.5461848e-02   2.1412650e-01   2.4101103e-01   6.0305807e-02   2.9475374e-01   1.1309384e-01   1.9230956e-01   2.9149319e-01   1.2590306e-01   1.4522033e-01   3.0854544e-01   1.3264045e-01   4.1324746e-01   4.9239102e-01   3.6724304e-01   1.7511647e-01   2.9627195e-01   5.9181118e-02   4.5951001e-01   4.4724212e-01   4.2924280e-01   1.7556174e-01   3.7909903e-01   1.2990036e-01   3.6799689e-01   3.4844984e-01   3.0955593e-01   3.5491982e-01   5.1370273e-01   3.6161561e-01   6.0152172e-01   5.0099885e-01   5.7678822e-01   5.4203432e-01   4.7463261e-01   1.3544599e-01   1.1632395e-01   2.0499761e-01   2.8591237e-01   3.3499122e-01   2.1087175e-01   4.1634654e-01   3.6482919e-01   4.8926817e-01   2.6990424e-01   1.6610391e-01   5.5639460e-02   3.0759797e-01   3.9081355e-01   2.1243267e-01   1.3631982e-02   3.7190548e-02  -1.1526204e-01  -4.4054788e-02   1.4659624e-01   4.0481431e-01   5.8464439e-01   1.0083073e+00   1.0443368e+00   1.3126776e+00   1.0561427e+00   9.5342324e-01   3.3221792e-01   2.8721369e-01  -1.6902704e-01  -2.4036710e-01  -3.1062184e-01  -5.2532565e-01  -1.5226594e-01   1.9045316e-02   3.3465328e-01   4.2366992e-01   1.7444196e-01   3.9320751e-01   3.4135063e-01   7.7791752e-03   3.0624368e-01   1.9928095e-01   4.6462790e-01   7.9447253e-03   2.3933070e-01   2.2101756e-01   2.4003814e-01   3.9539674e-01   1.7228970e-01   4.0416036e-01   2.4820621e-01   3.1145921e-02   1.0193868e-01   3.7561741e-01   2.5221831e-01   9.2572833e-02   1.9322941e-01   3.3853453e-01   1.4860332e-01   4.3983489e-01   2.0993704e-01   5.6511518e-01   2.5882458e-01   5.2493457e-01   2.5440632e-01   3.1038437e-01   2.0742114e-01   4.3386740e-01   4.7134264e-01   3.8685588e-01   3.1032205e-01   4.0357732e-01   3.8906305e-01   3.8866092e-01   3.5094420e-01   4.9377350e-01   1.1802678e-01   3.6481034e-01   1.2489495e-01   6.3087954e-02   3.0478191e-01   2.2506885e-01   2.2936275e-01   3.3097238e-01   3.8514276e-01   1.7510901e-01   3.3100480e-01   2.0807929e-01   4.2096458e-01   4.1645841e-01   1.2822050e-01   3.0673037e-01   2.9112458e-01   2.7036967e-01   4.3497052e-01   1.3238951e-01   1.5903704e-01   5.9607271e-02   4.6991474e-01   3.2277594e-01   2.3973161e-01   3.1965848e-01   2.7235806e-01   3.2365574e-01   2.7300229e-01   3.6158263e-01   2.6336630e-01   5.0003028e-01   1.1357560e-01   5.8195747e-02   6.1204664e-02   3.9210940e-02   2.2265252e-01   2.6938420e-01   2.6482899e-01   5.0039639e-01   4.6931542e-01   5.7808059e-01   6.9524034e-01   7.5190715e-01   3.9827406e-01   3.8393804e-01   6.5039306e-01   3.1244674e-01   4.9151576e-01   4.5726250e-01   5.8593714e-01   3.6107073e-01   2.7864908e-01   3.8091331e-01   3.9110920e-01   2.6779460e-01   1.8091848e-01   8.1354559e-02   2.9869575e-01   1.3601616e-01   2.6464334e-02   3.8099771e-01   1.2421754e-01   2.2331980e-01   3.4531047e-01   1.8032032e-01   3.3639038e-01   1.0130854e-01   1.4961754e-01   1.6746628e-01   1.4770638e-01   1.5103175e-01   5.2136114e-01   7.8277622e-01   9.2044595e-01   9.3939319e-01   1.1481487e+00   6.8953698e-01   6.5574988e-01   1.4474404e-01   7.0997872e-02  -3.7787543e-01  -2.5393504e-01  -1.8178348e-01  -9.0963245e-02   1.5034759e-02   3.9594053e-01   4.7612580e-01   1.6599348e-01   3.3857986e-01   2.2300709e-01   4.2117182e-01   3.8958556e-01   8.9522130e-02   4.3762252e-01   5.0230527e-01   2.6531784e-01   4.5098355e-01   3.0359298e-01   8.7693050e-02   1.1098521e-01   2.1526813e-01   3.8688049e-01   4.2605646e-01   4.0898299e-01   1.7400052e-01   2.8250738e-01   6.1187572e-02   7.8519975e-02   1.0298620e-01   3.9205685e-01   3.1820998e-01   1.8336744e-01   3.5390593e-01   1.9809790e-01   1.6967163e-01   5.8543167e-01   4.4691504e-01   6.2666884e-01   4.9409631e-01   4.2105650e-01   5.2125793e-01   5.3696458e-01   5.7581174e-01   6.5515425e-02   4.8187184e-01   3.3933408e-01   5.1616154e-01   2.7739936e-01   2.4993118e-01   4.0745346e-01   1.1731130e-01   2.5017709e-01   4.5042624e-01   2.8733061e-01   4.2258909e-01   3.6932015e-01   2.9299352e-01   1.2336726e-01   3.3320811e-01   4.1741407e-02   3.1297989e-01   3.3047228e-01   3.6487593e-01   4.4537606e-01   4.9115161e-01   3.8451454e-01   2.9072324e-01   4.6415653e-01   2.9004518e-01   8.4914692e-03   6.0429786e-02   4.3135536e-01   2.4214826e-01   4.2242784e-01   1.0470254e-01
