Tiempo (s),PPG Suavizada,Primera Derivada,Segunda Derivada
19.27873659133911,-68293.13254178768,17170.5043998154,-60483.012557369875
19.292306423187256,-68155.76850658916,16686.64029935644,-90803.9813083974
19.33588147163391,-68026.14629699798,15717.640698881041,-121283.87500393955
19.33675503730774,-67904.28625540706,14746.098299293408,-121601.72489302568
19.354106903076172,-67790.20872420928,13772.01310059263,-121919.57478222548
19.388923406600952,-67683.93404579758,12795.3851027778,-122237.42467142528
19.391151189804077,-67585.48256256484,11816.214305849826,-122555.2745605114
19.41178584098816,-67494.87461690398,10834.500709809618,-122873.12444965437
19.442070484161377,-67412.13055120788,9850.244314655356,-123190.97433891102
19.4511137008667,-67337.2707078695,8863.445120387041,-123508.82422799713
19.474656105041504,-67270.31542928169,7874.103127007402,-123826.6741171401
19.49092674255371,-67211.28505783738,6882.2183345128,4355.462749686012
19.530435800552368,-67160.19993592949,7943.790531002378,24973.301187912966
19.5312922000885,-67084.18440934134,7281.791153519407,-243468.68617516293
19.552782773971558,-67043.69127747318,4048.291552199771,-337179.9523320078
19.57900309562683,-67019.41174450614,1886.911916207282,-273158.482143117
19.594260215759277,-67013.50068681386,-322.2441620901009,-239712.55794981515
19.626816272735596,-67024.56765109958,-1948.4890109897606,-149548.20570034144
19.641103744506836,-67044.6765109897,-2715.015453295564,-58340.21935083911
19.650837182998657,-67068.00789835231,-2881.9325206031863,-1903.4920158560453
19.674746990203857,-67090.78743131935,-2745.4713255492607,22817.75841339595
19.69107937812805,-67111.9354395611,-2516.848385988851,21224.137190927195
19.725438117980957,-67131.05700549517,-2405.8851304944255,6881.546188139964
19.74047017097473,-67150.42960164901,-2406.7436469786117,103.29026446243006
19.750852346420288,-67169.56490384683,-2404.2324862630267,-4150.390624886313
19.779232501983643,-67188.89732142922,-2473.1498969767927,-11602.045415713746
19.79471707344055,-67209.13530219845,-2589.8652129144466,-16162.914234428172
19.830278873443604,-67230.33516483585,-2731.7565247276434,-28002.393114547885
19.83095407485962,-67252.8434065941,-3037.9035027472128,-48091.67882871179
19.85310673713684,-67278.9416208798,-3501.223385987032,-50325.16311808876
19.877639770507812,-67308.86298076989,-3843.106112636633,-32352.65710867452
19.890889883041382,-67340.43131868199,-4018.8658997258244,-20057.091346302514
19.927018880844116,-67373.1648351655,-4164.019574177473,-30328.436212244014
19.94259524345398,-67407.05563186883,-4504.120879121729,-60984.1818335326
19.951116800308228,-67445.23076923145,-5139.766483513995,-77541.47707754555
19.979243755340576,-67489.29189560506,-5744.7845123624575,-50337.23600632811
19.994985818862915,-67537.14732142925,-5945.162259615245,15828.897664846409
20.02533483505249,-67584.4144917589,-5491.522149724915,102548.4525240472
20.040027141571045,-67625.01167582485,-4304.387019230489,185597.84941618316
20.051098585128784,-67653.28468406659,-2521.956559065984,247425.79198141355
20.076306104660034,-67665.3629807699,-345.5743475278723,282034.73772316554
20.091017246246338,-67658.81387362703,1990.599244504665,291124.2809924488
20.126111268997192,-67633.51339285783,4312.4141483513085,279634.91586541524
20.140702962875366,-67589.81524725341,6464.7578983513085,253879.42135984075
20.1511869430542,-67530.07726648421,8374.48489010876,222723.321600256
20.17450475692749,-67455.82348901167,10028.331043955404,185414.0732315841
20.190265655517578,-67369.62396978092,11341.110061814106,135412.19522682013
20.210426568984985,-67274.36572802265,12194.926167584526,81879.668183376
20.240857124328613,-67174.50515109957,12651.184752748122,37896.79558713033
20.24996280670166,-67071.94677197868,12801.274896978612,-1777.3974073520549
20.27823257446289,-66969.68475274791,12622.74639423049,-39375.05365729521
20.293789386749268,-66869.98282967099,12171.274038461888,-69593.49244505119
20.310360193252563,-66774.94436813252,11509.25051510967,-96792.36778856648
20.339942693710327,-66685.83482142923,10622.596153844825,-128713.08379129687
20.34983801841736,-66604.982829671,9449.84117444892,-163708.36195039828
20.3742938041687,-66534.63736263805,8003.262362638452,-198317.30769209343
20.390209674835205,-66476.93063186879,6276.764251375425,-240886.3109546928
20.410394430160522,-66434.20913461605,4149.081387363367,-288712.38624662964
20.429957389831543,-66410.54532967097,1657.366071429351,-302353.4083104664
20.45014190673828,-66407.69127747318,-688.5731456040958,-254123.5619850113
20.478602170944214,-66421.56250000064,-2408.6109203308297,-167752.77944719847
20.494717359542847,-66446.22905219847,-3372.617616759271,-78196.09589614629
20.510292053222656,-66475.52438186879,-3659.7484546691703,-13682.606455972746
20.540573358535767,-66504.78502747318,-3591.539320054835,15226.594694240703
20.54986047744751,-66532.98901098967,-3416.122939561319,21146.334134584777
20.582528352737427,-66559.44299450616,-3253.1979739014787,13222.495278114366
20.59885811805725,-66585.04017857209,-3204.563015111489,-2052.3909683447528
20.6113498210907,-66610.71600274794,-3286.0362293949947,-12842.870020449482
20.629971742630005,-66637.61675824241,-3410.048935438681,-18633.831988438487
20.64984917640686,-66665.27678571496,-3584.1775412100105,-28033.246050881644
20.675732374191284,-66694.96359890177,-3858.5808722527872,-42841.3139593431
20.690760374069214,-66727.014079671,-4269.6385645595,-56891.472784968755
20.711336612701416,-66763.27781593472,-4768.844436812287,-54754.57160036967
20.7341570854187,-66803.31559066,-5145.711710165415,-37332.05271305451
20.751625776290894,-66845.60920329737,-5366.157280221159,-19774.049192960774
20.777503728866577,-66889.17410714354,-5462.096497252787,-14845.62800465028
20.79090690612793,-66933.00274725341,-5603.687328295564,-38927.01536750564
20.811988592147827,-66978.83310439627,-6084.928743132878,-83162.07718081614
20.83075475692749,-67030.36160714354,-6934.280563188622,-102128.58430622873
20.851014137268066,-67089.78159340729,-7718.986092032537,-54664.69565578791
20.87474012374878,-67153.86538461606,-7808.915693681229,45741.48995533278
20.89012837409973,-67214.72424450619,-6987.122252747213,152813.25120201928
20.926342248916626,-67265.65934066002,-5363.90367444892,248920.1472355944
20.941409587860107,-67300.54670329737,-3004.399896977702,324323.38169633114
20.94896626472473,-67313.72973901166,-174.72956730762235,355961.055546004
20.976306438446045,-67303.34237637429,2690.9769917583617,344693.0266997583
20.990444898605347,-67270.67410714352,5340.358859888511,317766.4620535552
21.009434938430786,-67217.89663461607,7775.240384615245,285510.38804965856
21.029924154281616,-67146.27026098968,9908.525068683048,245734.2462225256
21.049731254577637,-67059.36023351715,11706.988324175654,199787.5171701935
21.075753450393677,-66958.95844780287,13105.125343406144,141382.9090832337
21.09116220474243,-66849.67822802265,13969.114869507393,76882.83396299767
21.109220027923584,-66735.45260989075,14335.250686814106,19951.118217477415
21.141860723495483,-66620.31421703362,14288.332760987032,-30687.93998977526
21.157318353652954,-66506.83928571496,13844.243646977702,-71725.02790160706
21.180938005447388,-66398.80631868198,13140.732314561319,-99489.98755146476
21.19626498222351,-66296.58756868198,12252.403846154266,-128227.48540520479
21.20910334587097,-66202.76785714351,11089.092548078042,-164672.85156255684
21.22952628135681,-66119.16208791273,9617.638221153356,-208616.8226306313
21.248708486557007,-66048.88564560506,7751.223385987942,-263382.1256868032
21.27565622329712,-65995.14251373692,5403.524210164505,-323227.4317478527
21.29054856300354,-65962.42925824242,2579.584478022298,-366982.26090311434
21.309713125228882,-65953.86916208857,-468.1919642853245,-362841.26030221843
21.34070634841919,-65969.92032967099,-3225.875686813197,-290653.43835856084
21.34865951538086,-66005.48317307758,-5118.646978022298,-173174.84761326795
21.37931537628174,-66051.81868131935,-5996.673248625484,-68117.91723902161
21.39488124847412,-66101.42994505558,-6208.533653846644,-1938.3692480801074
21.410765171051025,-66151.15521978089,-6027.687156594766,32199.73385995445
21.42902398109436,-66197.8729395611,-5693.337912087372,30698.671445748005
21.448698043823242,-66242.24862637429,-5536.508413462798,6281.926081669553
21.472713708877563,-66286.4570741765,-5592.8270947806595,-13756.38521625433
21.489248275756836,-66331.73385989078,-5756.610576922867,-21252.307262955128
21.509586095809937,-66378.56284340727,-5932.864010987942,-20574.88410031283
21.52930736541748,-66426.65968406659,-6085.808722527872,-23444.207160139285
21.54956293106079,-66475.93578296772,-6307.97132555017,-34104.56730750866
21.57868504524231,-66527.58722527539,-6631.481799448011,-41545.49064213597
21.59451961517334,-66582.03949175889,-6972.699175824346,-41479.760474146584
21.609675884246826,-66639.15041208858,-7295.157967034356,-34305.78210850399
21.629629373550415,-66698.76201923144,-7521.59168956041,-25335.626287755986
21.6493661403656,-66759.49587912155,-7700.527987638452,-38033.62165177759
21.675538539886475,-66821.97046703365,-8130.129635988851,-69838.97450197673
21.68910551071167,-66889.57795329737,-8817.95157967008,-71285.03820399601
21.709821939468384,-66963.05769230837,-9270.690247252787,-5569.625686860036
21.741424560546875,-67037.90899725341,-8907.06559065984,113605.87654525034
21.749162435531616,-67105.57074175893,-7452.996222528782,239362.44419650166
21.775636672973633,-67157.15693681387,-5077.266483515814,335535.0703984641
21.79301881790161,-67186.80700549518,-2084.4350961533564,384568.43449517916
21.810084104537964,-67190.50789835233,1075.8284684070532,379193.3164491752
21.828805208206177,-67169.59375000067,3982.6579670334468,343778.17007202795
21.84967541694641,-67126.78537087979,6576.2791895595,307480.3614354664
21.874562978744507,-67064.37328296772,8902.34375000091,274007.60860246007
21.88870668411255,-66984.34787087978,10960.400927198862,229311.09417908147
21.909684658050537,-66889.00686813254,12571.321256866213,163106.0589800768
21.92873787879944,-66783.20673076992,13570.09787088009,86624.31318697373
21.94824767112732,-66671.88530219845,13957.310267857792,21477.66783980387
21.974703311920166,-66559.8897664842,13913.740556316952,-25968.78219435439
21.98993182182312,-66449.26545329738,13541.809752748122,-62442.31842356385
22.011266708374023,-66343.22081044022,12914.66346153993,-88739.75145951363
22.035468339920044,-66242.63083791274,12121.973729395904,-119828.7796189561
22.052295684814453,-66149.26923076989,10997.402987636633,-158486.1671531712
22.073906898498535,-66066.67239011056,9586.195054945165,-195536.5191448095
22.096144437789917,-65995.89010989077,7868.818681319681,-240457.05271294081
22.110588312149048,-65940.77129120944,5738.882211538112,-288157.0333964305
22.132550954818726,-65904.06799450616,3258.3061469767927,-329933.25034340157
22.148153066635132,-65888.63839285781,459.9502060436862,-356008.00566601264
22.17573356628418,-65896.70879120946,-2437.8219436794097,-324496.42642507114
22.192954540252686,-65927.64354395668,-4731.992616757452,-215994.69866089293
22.20966935157776,-65972.42067307758,-5893.737122253697,-79288.0215489049
22.23180341720581,-66021.94333791274,-6000.600961539931,26588.523781015283
22.248445749282837,-66068.43028846222,-5468.320741757452,74405.2090489049
22.279573678970337,-66109.43646978086,-4810.117616757452,75824.44411042388
22.295199394226074,-66145.39217033033,-4255.12963599067,51488.184666823145
22.309685945510864,-66177.51854395671,-3986.306662088282,18918.215573648922
22.331414937973022,-66209.17307692375,-3952.4381868122873,908.1494678753188
22.347963094711304,-66240.75755494571,-3971.776270602277,-1509.1110062712687
22.379558563232422,-66272.72149725338,-3976.5839629126276,-3766.7410716153427
22.394978284835815,-66304.38289835231,-4032.0441277481223,-25665.61856104954
22.4093074798584,-66337.23420329735,-4387.23385988942,-52330.60396636801
22.428011894226074,-66374.57864011054,-4869.3337912100105,-55578.2108516496
22.447972059249878,-66415.14354395671,-5276.485233515814,-55893.44737279589
22.475109815597534,-66459.0024038468,-5763.628949174745,-84893.8658998577
22.49442410469055,-66507.36160714351,-6634.787087913537,-115883.6280907849
22.509422779083252,-66565.15899725341,-7617.766998627303,-89999.3561125143
22.53034520149231,-66629.24587912155,-8074.776785713766,5062.564388822466
22.547293186187744,-66694.35542582483,-7536.765968406144,144399.78966339596
22.576523065567017,-66749.83413461605,-5764.380151099431,274554.9128604807
22.58980131149292,-66786.58550824242,-3143.887362638452,348516.1079155432
22.609655141830444,-66800.13633241826,-188.12242445073935,366098.2572116609
22.631596326828003,-66789.59546703364,2713.6847527481223,347021.752661476
22.647815227508545,-66756.71737637429,5364.225618132878,312780.3592890359
22.675482511520386,-66703.76785714351,7718.170501372697,273403.9641997583
22.69234323501587,-66633.22664835233,9738.68904532901,227818.0803572809
22.710696697235107,-66547.94883241825,11363.259787089191,170713.31988319117
22.732966661453247,-66451.4144917589,12470.10216346007,96707.85757202793
22.750171661376953,-66348.42719780288,12910.585508241638,24206.140539376975
22.778823137283325,-66244.84512362703,12857.4004120901,-24300.040779451137
22.793129444122314,-66142.70879120944,12521.78485577042,-62844.74802561135
22.808282613754272,-66044.4965659347,11851.88444368032,-96930.53528519612
22.83777689933777,-65953.07864011056,10970.896291207282,-120310.35370864629
22.85482621192932,-65868.96222527539,9926.918784341979,-144609.0530561719
22.880604028701782,-65794.24793956109,8657.151442308532,-174686.64148361768
22.895326137542725,-65730.44780219845,7131.932520604096,-212449.29387029287
22.910521745681763,-65680.13701923142,5257.962740383846,-254344.89826574235
22.929226636886597,-65646.32039835231,3062.414148352218,-294905.7778158135
22.94803524017334,-65631.13839285779,539.4702953308297,-333194.2715488481
22.975332260131836,-65637.68887362702,-2268.694196429351,-347087.4828298065
22.98901128768921,-65667.43750000065,-5013.929429946074,-293375.20389759674
23.009187936782837,-65717.91174450616,-6962.697458790899,-166891.58009950235
23.02682113647461,-65778.84065934131,-7684.194711538112,-28961.51699872007
23.04689121246338,-65840.85885989077,-7426.08173077042,62522.80434398472
23.077783346176147,-65897.65796703364,-6683.829842034356,92935.75077282412
23.09244680404663,-65947.80013736332,-5939.109718405234,78719.25437859772
23.110299587249756,-65992.68372252812,-5424.321771976793,51400.99158643352
23.1311776638031,-66034.58928571494,-5116.693853022298,33875.18243459908
23.147031545639038,-66074.55082417648,-4882.318853023207,26494.623540543216
23.175086975097656,-66112.70638736332,-4692.779876373606,21366.328983617677
23.188540935516357,-66149.63530219845,-4540.4575892853245,11678.507039789565
23.208449840545654,-66185.35370879188,-4505.923763736973,-10943.402300767957
23.22844362258911,-66221.73008241825,-4715.552026097612,-30942.812070748005
23.2469801902771,-66260.80254120944,-5001.008756868941,-26025.122338694473
23.269709587097168,-66301.74622252815,-5131.953983516723,-12319.71153839595
23.289509057998657,-66342.91380494571,-5198.124141483277,-6705.818595492019
23.310374975204468,-66384.91620879188,-5239.247081044596,-11890.453296643955
23.326980113983154,-66426.74175824242,-5388.37139422958,-53320.58078636237
23.34627676010132,-66471.13015109955,-6092.376373626394,-108945.74175836169
23.378785371780396,-66524.21978022045,-7131.503262363367,-99090.24081389362
23.394019603729248,-66585.23420329737,-7677.8202266486915,-5310.7293097127695
23.410136699676514,-66647.06490384683,-7216.474931318771,130659.50163115757
23.4303936958313,-66700.69780219847,-5587.26820055017,262106.42384955919
23.44638419151306,-66736.46119505563,-3022.7721497258244,343438.78777480085
23.479283094406128,-66749.06215659408,-92.24759615335643,360957.88976655283
23.494780778884888,-66737.93715659408,2752.5540865390212,338938.28339626
23.508967638015747,-66705.02129120946,5330.764938186803,303311.1907622583
23.52691888809204,-66652.6449175831,7605.533138735154,262313.00437848404
23.546351671218872,-66583.3327609897,9527.773008242548,226692.6189046785
23.57747220993042,-66500.20054945121,11232.61504121001,196758.56370190557
23.593003034591675,-66403.61092033033,12675.910027473037,149847.345037756
23.608330249786377,-66297.38598901164,13630.172561814106,88702.19136326795
23.62619924545288,-66185.52815934131,14095.145089285325,28442.38281232947
23.646249055862427,-66071.86366758308,14085.250686811378,-27962.15015450798
23.675288915634155,-65960.16414835233,13647.750686813197,-71840.39105408147
23.688278436660767,-65853.49965659407,12935.804429946074,-106839.6935094711
23.708499908447266,-65753.19127747319,11938.31559066166,-146240.234375
23.72620177268982,-65662.48660714348,10595.960679946074,-183291.927799047
23.745917558670044,-65583.65590659405,9005.644745876907,-223674.3968921928
23.788418292999268,-65518.39629120945,7017.170329670989,-277920.56576208776
23.788905382156372,-65471.38118131932,4558.9156936835025,-329895.6902473833
23.806215286254883,-65445.453640110514,1738.8392857128565,-375977.9039322382
23.8343243598938,-65443.55975274791,-1456.7307692323084,-396764.7342890075
23.851601600646973,-65468.76133241823,-4609.396462911263,-337587.4613666951
23.88430166244507,-65517.31009615449,-6858.130151099431,-198946.43930297205
23.900206565856934,-65578.49141483582,-7792.539491758816,-53407.77386669515
23.9096257686615,-65641.99072802263,-7712.654532966553,41328.17865726679
23.93165349960327,-65701.89388736329,-7131.288633242548,72123.43320742321
23.948320627212524,-65756.09134615451,-6558.679601647782,50922.10036065125
23.978978872299194,-65806.83276098965,-6316.535027472128,16464.73643529589
23.99433207511902,-65857.15590659407,-6295.243818683048,-988.6353880688148
24.009097814559937,-65907.55666208858,-6332.353193681229,-7377.876030034258
24.02645754814148,-65958.47355769297,-6413.289835163596,-8653.577867448803
24.04582118988037,-66010.1692994512,-6470.81043956041,-6174.611521430506
24.078965663909912,-66062.00652472593,-6512.083619506484,-16407.05485925764
24.09364628791809,-66114.3626373633,-6733.323317308532,-38422.636933319154
24.106600761413574,-66169.73969780287,-7126.84581043959,-46504.764766325476
24.129749298095703,-66228.39217033033,-7477.3995535697395,-37700.94651446243
24.15421223640442,-66289.37809065999,-7730.060954670989,-22513.253348336093
24.181419134140015,-66352.07314560507,-7837.611607143117,610.3515625568434
24.19560933113098,-66414.77987637428,-7720.29532967008,20328.060611177534
24.20545244216919,-66475.59787087979,-7512.362637364276,26903.760302218416
24.231069803237915,-66534.9776785721,-7289.835164834585,23776.882297511293
24.247282028198242,-66592.23523351715,-7131.932520604096,-11137.90994173769
24.27909541130066,-66649.08859890177,-7468.041723902388,-75666.1551339448
24.295459747314453,-66711.72390109958,-8342.591002747213,-109454.14448821111
24.305092811584473,-66782.57005494573,-9219.308035713766,-74548.74227335039
24.329658269882202,-66859.232829671,-9535.37087912082,21037.678142192817
24.346233367919922,-66935.13598901166,-8882.705185438681,143181.76940236072
24.375365495681763,-67001.35611263802,-7244.462568683048,248081.75223211036
24.38939070701599,-67051.04739011059,-4913.397149724915,311680.3850448377
24.404927253723145,-67079.97046703362,-2257.5764079656437,330921.88573141355
24.42646312713623,-67087.16861263804,381.35302197770216,314438.3692479096
24.445274353027344,-67073.86881868198,2773.4375000009095,283032.76313528157
24.47416090965271,-67042.79361263802,4909.8772321422075,257267.87860571675
24.488635063171387,-66995.3107829677,6889.723557692378,227977.71076585603
24.504964590072632,-66932.55803571494,8557.520604395904,178673.37740381117
24.52497434616089,-66858.39045329737,9748.497596153356,121740.32022659275
24.54501748085022,-66776.58207417649,10505.365728021388,64805.92161750564
24.578526258468628,-66690.30460164903,10785.392342033447,9106.981885395271
24.593276023864746,-66604.01579670396,10651.077438187713,-34343.34220474966
24.60505771636963,-66519.88736263802,10235.898866757452,-61909.76991769048
24.625489234924316,-66440.24141483584,9660.521119504665,-82612.09005826231
24.645255088806152,-66365.31902472595,8914.105425825255,-110281.80803560872
24.682252883911133,-66297.61572802263,7896.0121909349255,-145338.7920674345
24.695393562316895,-66238.98282967099,6588.684752746303,-188425.5880838168
24.704972982406616,-66192.19677197869,4881.202781593856,-233961.8389422071
24.72683095932007,-66160.88358516549,2845.2953296709893,-279180.1704155432
24.746092081069946,-66146.67204670396,414.3200549451649,-322275.01502410404
24.776368141174316,-66154.25446428636,-2311.1049107146755,-316175.523695108
24.79028606414795,-66183.64972527539,-4644.488324176564,-232578.8225446672
24.804946422576904,-66228.56627747319,-6032.366071429351,-112335.54043599269
24.827685117721558,-66280.16758241826,-6441.856971152447,-6344.9733859215485
24.845372438430786,-66331.63598901163,-6133.885645604096,59082.031249829466
24.88124656677246,-66378.30975274793,-5496.544471155175,74364.96608863762
24.8925940990448,-66419.58070055011,-4944.046188185894,50127.972613438484
24.905092477798462,-66457.4144917589,-4694.49690934016,16034.136761561513
24.930782556533813,-66494.69265109955,-4687.5000000009095,-4224.1693854521145
24.94657826423645,-66532.41449175891,-4762.083619507393,-6905.691964163907
24.978652477264404,-66570.88598901167,-4797.991071427532,-3164.438100782263
24.994662761688232,-66609.18234890176,-4812.71462911991,-10232.443337997665
25.004218578338623,-66647.88942307759,-4961.710164835495,-30553.796789206444
25.026722192764282,-66688.56971153912,-5301.575377747213,-45882.34031598404
25.04429340362549,-66732.71462912155,-5695.827609891239,-45878.3160199232
25.078541040420532,-66779.70295329738,-6035.628434065984,-31715.476905731066
25.093139171600342,-66829.2846840666,-6203.275240382936,-4638.671875056843
25.104116916656494,-66878.95535714351,-6109.8471840668935,21884.12173740062
25.128905057907104,-66927.04223901167,-5853.129292584526,33055.56747949367
25.144240379333496,-66972.60542582486,-5580.958104394995,29389.433808546528
25.17452836036682,-67016.33756868199,-5382.898351647782,7435.557606470411
25.188826084136963,-67058.73179945123,-5461.989182691468,-41769.50978700233
25.204115629196167,-67103.72939560506,-6051.210508239819,-85569.9476306313
25.224775314331055,-67155.55116758306,-6831.108344781569,-75502.50042942252
25.24448561668396,-67213.02712912156,-7259.25051511058,-4332.8253776167
25.278248071670532,-67271.69917582483,-6900.433550823436,100092.29052195678
25.294278860092163,-67323.43406593474,-5657.773866759271,197772.68629798072
25.304138660430908,-67362.22355769298,-3736.0705700557446,263948.2099932593
25.329911470413208,-67383.21119505563,-1434.6025068671224,292485.83447810006
25.345028400421143,-67385.17719780286,943.7027815938563,287095.96067977825
25.374435424804688,-67368.11195055013,3158.93286400933,261203.64010984075
25.38857865333557,-67334.6342719787,5122.9610233513085,235821.06370213296
25.404115438461304,-67286.1445741765,6932.069883243457,216395.78683044645
25.42736029624939,-67223.72115384681,8585.293612638452,190763.70406918385
25.445465087890625,-67148.77987637429,9984.289148350399,147301.30709125433
25.474320888519287,-67063.9725274732,10942.114526098521,89378.27309421208
25.48902463912964,-66973.70604395671,11414.341517857792,31732.915521956784
25.504339456558228,-66881.34306318748,11449.84117444983,-17236.05983863763
25.528006553649902,-66790.50858516552,11138.56456043959,-55044.320913395946
25.544154167175293,-66703.12603022045,10569.132039835495,-88238.05588946243
25.581161975860596,-66621.40247252815,9726.755666208192,-117720.04850615757
25.59598183631897,-66547.49793956112,8685.611263736973,-145683.54009264795
25.604238986968994,-66482.43269230836,7395.819024725824,-183974.71668959042
25.626790523529053,-66429.1648351655,5742.015796703527,-224675.10516821675
25.644278287887573,-66390.5604395611,3801.0173420343563,-261391.4405906712
25.681318759918213,-66368.34855769295,1559.7527472527872,-296481.96042251127
25.698015213012695,-66365.60439560506,-942.6940247258244,-307499.14148356084
25.704491138458252,-66383.43166208857,-3360.233516484186,-259132.46909334476
25.727157592773438,-66419.3681318688,-5088.8135302193405,-151993.63624645912
25.745129585266113,-66464.85267857208,-5792.131696427532,-38555.43870207611
25.773486614227295,-66512.04223901164,-5705.700549452558,33742.38066612634
25.789000511169434,-66556.14388736332,-5252.253605769511,64365.9319197809
25.802934885025024,-66596.07829670396,-4675.845638736064,59916.4019574232
25.831693410873413,-66630.9574175831,-4293.591174450739,27671.059409385634
25.846513032913208,-66664.77575549517,-4233.108688185894,1238.1417410551876
25.87562584877014,-66698.68715659407,-4273.780906593856,-846.4435956057059
25.891344785690308,-66733.15625000067,-4246.651785715585,6774.2316277872305
25.90313458442688,-66766.63358516552,-4165.393200549261,3324.0685098121503
25.934688091278076,-66799.80254120946,-4193.466689558591,-12549.096411419214
25.954099655151367,-66833.72905219845,-4366.178743131968,-28070.806147184157
25.984885215759277,-66869.66140109957,-4642.599587913537,-34485.53399726961
25.985641479492188,-66908.01064560507,-4917.947287088282,-28767.009357693496
26.006114721298218,-66948.34855769298,-5102.871737636633,-16016.698145563169
26.034693241119385,-66989.65659340726,-5174.214457417293,-2967.24759624567
26.053771495819092,-67031.13598901166,-5150.347699176564,11175.470037755986
26.08488893508911,-67072.06215659408,-4995.406936813197,24941.24527817121
26.085695266723633,-67111.06250000067,-4751.287774725824,26698.52120533278
26.103928804397583,-67148.0827609897,-4568.230597527872,19854.535113381644
26.131357192993164,-67184.15418956112,-4433.615212911718,12109.10671363763
26.150784492492676,-67219.02060439628,-4374.48489010967,-10546.338427161572
26.177891969680786,-67254.14594780287,-4602.356627746303,-57240.24510647041
26.19106888771057,-67292.65831044022,-5290.328811813197,-104226.58396299767
26.203063488006592,-67338.79120879188,-6269.981971154266,-103605.50094441124
26.227017641067505,-67392.97802197869,-6948.0168269237765,-36136.83679611768
26.24364399909973,-67449.95947802266,-6848.171359892149,70068.35937505684
26.269720554351807,-67502.54876373697,-5826.923076922867,178677.40170015622
26.28949236869812,-67543.19024725343,-3989.332932689649,262799.94419638795
26.303032875061035,-67566.37809066,-1622.1239697806595,300209.79996544385
26.325681447982788,-67569.14423076992,814.0238667574522,293516.054258248
26.343473434448242,-67553.35370879188,3074.1328983513085,274424.79395614326
26.378817319869995,-67519.9581043963,5204.820570055745,254229.53511338163
26.394675970077515,-67470.07657967099,7141.805460165415,225957.51416542951
26.4032199382782,-67405.68921703365,8820.140796702617,190810.65418964726
26.429694175720215,-67328.95432692375,10194.775927199771,148590.42324866322
26.44499635696411,-67242.57280219845,11197.587568681229,102030.65976969583
26.478656768798828,-67149.79292582485,11827.266483514904,49066.89989701362
26.49478793144226,-67053.33653846222,11982.657967033447,-6751.427283631983
26.503153085708618,-66958.07039835231,11719.243646976793,-49852.97905216157
26.526700496673584,-66865.82864011059,11185.010302198862,-82326.3650410695
26.54319190979004,-66779.11023351713,10402.02180631968,-113097.47381534407
26.5787193775177,-66699.39629120947,9375.450721153356,-153302.87388388798
26.59325385093689,-66629.10302197868,7949.175824177473,-201161.14354402726
26.60300874710083,-66572.20947802263,6156.87242444892,-241790.43612645046
26.624775409698486,-66530.5930631875,4080.528846154266,-282520.3361090871
26.642277479171753,-66506.92101648416,1636.5470467035266,-325024.9506354521
26.679722785949707,-66504.40831044024,-1119.870364012968,-342929.0436126848
26.68228316307068,-66524.83894230837,-3850.317651099431,-301270.87268181186
26.702019929885864,-66566.01339285783,-5940.2043269219575,-198923.6349586463
26.73077940940857,-66619.88221153912,-7033.095810437771,-86127.98334490889
26.746454000473022,-66678.54292582483,-7318.2520604405,-4947.201236461751
26.7787926197052,-66736.97424450617,-7112.251030221159,35543.923849672865
26.793779850006104,-66792.33894230837,-6749.549278845734,39147.0102164817
26.802063465118408,-66844.9670329677,-6485.898866757452,23570.301768472746
26.827908039093018,-66896.11332417649,-6372.42445055017,8276.63547386237
26.84190273284912,-66946.9258241765,-6353.472699175654,1523.8667583048482
26.87778639793396,-66997.7688873633,-6348.042582417293,3553.453382551197
26.89268136024475,-67048.49450549518,-6296.617445054835,7829.938616055188
26.901840925216675,-67098.51476648418,-6222.76356456041,2969.930460096748
26.928080081939697,-67148.05872252815,-6249.098557693287,-6971.422132551197
26.94439172744751,-67198.50034340727,-6334.306318681229,-10743.528931925539
26.978431940078735,-67249.40762362705,-6420.995020604096,-10854.867788452793
26.99363660812378,-67301.23626373694,-6507.984203296473,-2395.797561860036
27.002187967300415,-67353.53537087979,-6459.327781593856,13382.125686860036
27.029278993606567,-67404.58550824244,-6293.870192306713,22597.763564647266
27.046175479888916,-67454.2372939567,-6097.7635645595,28399.45698815427
27.07893466949463,-67502.14972527539,-5839.4788804962445,29596.014337130327
27.093602657318115,-67547.66895604464,-5624.227335165415,22985.437414263288
27.10239601135254,-67592.13736263804,-5471.711881868032,2783.4714114760573
27.12712860107422,-67635.21634615453,-5579.691792581798,-43670.31893877993
27.142067193984985,-67681.41243131935,-6170.436984888511,-89411.80889434008
27.178281784057617,-67733.94333791274,-7010.280734891239,-89689.48531958176
27.19356393814087,-67793.5769230776,-7605.468750001819,-29744.91328973272
27.202415704727173,-67855.63083791277,-7486.199347526963,62573.778760452115
27.229142665863037,-67913.35611263804,-6604.288289834585,153985.66277468717
27.245686531066895,-67961.29945055013,-5022.428743131968,236354.95364004554
27.278407096862793,-67993.71497252815,-2822.6090315938563,291507.93054611766
27.29392695426941,-68006.46119505563,-358.30185439408524,307656.0890281712
27.302215814590454,-67999.44780219845,2099.888392856883,297471.93724227825
27.326884984970093,-67972.86298076992,4401.249141482367,275059.29129472404
27.342098236083984,-67929.02781593474,6500.837053572468,246921.4135473976
27.373685359954834,-67868.84958791276,8351.991758240729,207818.67058718717
27.39032769203186,-67795.39594780288,9825.935782967463,156282.19436825928
27.40220618247986,-67711.63461538528,10852.506868132878,99425.59881517354
27.429639101028442,-67621.75583791276,11416.74536401024,48181.55477323671
27.445264101028442,-67528.96668956112,11623.411744504665,3546.7462226392854
27.47850728034973,-67435.78125000068,11473.493303572468,-30493.432348805527
27.493696212768555,-67345.39079670396,11135.516826923777,-53448.01682701927
27.50140070915222,-67257.6129807699,10618.32503434016,-82884.40075551762
27.526463747024536,-67175.49759615451,9809.366414835495,-115919.84675476396
27.541731595993042,-67100.66311813254,8763.607486263936,-149958.68389428323
27.57530689239502,-67035.27987637429,7410.027472526963,-190621.51227683443
27.587831258773804,-66982.1026785721,5713.663289834585,-235425.34126022473
27.600884914398193,-66943.86126373694,3643.222012363367,-283457.99708097277
27.624698638916016,-66923.81112637429,1178.3353365390212,-306146.9780220136
27.644535303115845,-66925.00789835231,-1255.129635988851,-270421.96085170645
27.680643320083618,-66943.89320055011,-3148.416037088282,-183238.27051858642
27.681298971176147,-66975.38255494573,-4186.941964286234,-75273.11555628557
27.702362775802612,-67010.88427197869,-4352.785885988851,5081.344436860036
27.733325242996216,-67045.02712912155,-4105.640453296473,41046.477936163225
27.748162984848022,-67076.57451923144,-3696.0422390102394,53240.09486599834
27.77643060684204,-67104.16380494571,-3253.7989354405,41324.154361177534
27.79206657409668,-67128.63530219848,-3034.855769231399,17835.67994510804
27.800958395004272,-67152.72149725341,-2968.4280563187713,6425.459306399262
27.823765516281128,-67176.13015109958,-2932.0484203290107,1813.616071387969
27.92253351211548,-67199.63427197868,-2939.4101991765638,-8092.859289263288
27.944385528564453,-67223.16071428641,-3061.5341689572233,-28793.837997852734
27.961804151535034,-67248.61881868199,-3400.1116071422075,-46714.0281592151
27.976145267486572,-67277.56250000068,-3808.958619504665,-43753.48772327925
27.97687530517578,-67309.56215659407,-4100.1674107146755,-26355.114612044872
28.005818367004395,-67343.16517857212,-4230.640453297383,-7571.042239021608
28.006399631500244,-67377.25240384683,-4221.304086539021,12901.893028868017
28.00693988800049,-67410.70604395674,-4024.2101648354947,89197.34634338283
28.014806270599365,-67441.6397664842,-2794.146545044896,92430.98664882155
28.079827308654785,-67455.41238867746,-2545.31437845435,-32908.061983050626
28.08050560951233,-67482.36479653946,-3320.675536773706,-42490.21148638121
28.107179641723633,-67508.54319726584,-3225.1577622364493,11785.582140191764
28.110570669174194,-67533.96732073525,-3132.1062225306378,11477.302786317978
28.11633276939392,-67558.65689682633,-3041.5209176553617,11169.023432444192
28.125065088272095,-67582.63165541773,-2953.4018476115307,10860.744078513562
28.14454436302185,-67605.91132638812,-2867.7490123991447,10552.464724639776
28.161591291427612,-67628.51563961612,-2784.5624120172943,10244.185370709147
28.198133945465088,-67650.46432498039,-2703.8420464677984,9935.906016721674
28.2139949798584,-67671.7771123596,-2625.5879157497475,9627.626662847888
28.221426963806152,-67692.47373163239,-2549.800019862232,9319.347309030945
28.249531269073486,-67712.5739126774,-2476.4783588052524,6835.370804878949
28.26127862930298,-67732.09738537327,-2440.434086984169,4505.533977635423