Tiempo (s),PPG Suavizada,Primera Derivada,Segunda Derivada
48.836180448532104,-62761.275819965456,-6573.029556649999,12346.519620166418
48.84952664375305,-62813.860056418656,-6474.257399688668,18000.372667330565
48.869009017944336,-62864.863938360475,-6285.02359397271,22615.41218859975
48.8893678188324,-62914.42043392222,-6112.410804671072,20537.785136781393
48.90936303138733,-62962.66251123521,-5956.419031784208,18460.158084877774
48.93861150741577,-63009.72313843077,-5817.048275313027,16382.531032974157
48.94822406768799,-63055.73528364022,-5694.298535256621,14304.903981155803
48.96794652938843,-63100.83191499487,-5588.169811614534,12227.276929309028
48.988356828689575,-63145.14600062605,-5498.662104387677,10149.649877462252
49.008201360702515,-63188.810508665076,-5425.775413575138,8072.022825587055
49.043460845947266,-63231.958407243255,-5369.509739178284,5994.395773683436
49.04899883270264,-63274.72266449193,-5329.865081196203,-123569.23296050582
49.067368030548096,-63317.236248542395,-7346.617466546377,-140198.38489343782
49.094393730163574,-63392.26854395667,-7573.039239491209,118881.19339332092
49.1189751625061,-63438.404876374254,-5444.518372253242,157859.7777600237
49.135632038116455,-63479.38083791272,-5047.28279533083,35847.08748286402
49.15967392921448,-63519.16140109955,-4870.964972527418,22298.624227431672
49.172749280929565,-63557.31627747316,-4690.504807691923,13800.652472497177
49.19923639297485,-63594.20947802262,-4650.154532967463,-10573.16706732081
49.21717977523804,-63631.71875000064,-4859.675480769056,-49705.421531626824
49.246039628982544,-63671.96428571492,-5445.441277473492,-91542.00291894199
49.247987270355225,-63718.845810440216,-6324.347527472128,-114074.0363151167
49.26759195327759,-63773.15384615448,-7270.625858515359,-140125.98729402726
49.293452978134155,-63835.17582417646,-8566.363324176564,-197804.88066626844
49.30834937095642,-63910.2156593413,-10435.503949175654,-225439.7214112771
49.34089112281799,-64002.14388736327,-12173.398866756997,-148634.6905048208
49.35825181007385,-64104.990041209414,-12813.658997252787,14516.977163282263
49.36738300323486,-64207.16243131932,-11941.127232144481,195260.18415189127
49.388702392578125,-64296.048076923726,-9689.496050822527,340603.0005152445
49.40746831893921,-64362.19436813248,-6491.479223900569,424341.89345786424
49.42752647399902,-64399.911744506135,-2900.0257554966993,444097.1626029864
49.4473443031311,-64408.594780220425,614.0753777472128,424227.8717377985
49.46733474731445,-64390.08653846218,3887.620192308077,388606.1448317264
49.49563217163086,-64346.392857143495,6831.773695054835,348434.28056313994
49.51079201698303,-64280.7781593413,9462.568681318317,303587.5257555176
49.54532027244568,-64194.9917582424,11689.174107143117,237558.21814913247
49.54767370223999,-64093.75137362701,13263.500171704436,156557.18792928042
49.56702709197998,-63982.77575549513,14194.089114011604,78821.20321073671
49.58876276016235,-63866.64594780283,14524.639423076223,9058.69033309159
49.607020139694214,-63750.38152472591,14339.02815934107,-47331.08688182597
49.64677095413208,-63637.22149725337,13767.342032967008,-85325.80700557446
49.64742875099182,-63530.10405219844,12973.815247251878,-112057.86401100681
49.66722822189331,-63429.64045329734,11974.416208790899,-147836.53846146193
49.69456195831299,-63338.513392857785,10608.430631868487,-195751.14826574235
49.71093988418579,-63259.90556318744,8842.397836539021,-246784.58748280717
49.74604558944702,-63197.03502747316,6659.877232143572,-303975.1996051052
49.74672031402588,-63153.347527473146,3978.7946428573377,-369993.77575554606
49.76595854759216,-63133.37431318744,739.9768200548351,-429990.6636333048
49.79104566574097,-63141.50789835227,-2901.05597527554,-428614.35439562
49.80534911155701,-63179.79120879185,-6117.852850275085,-313904.47930971277
49.82556366920471,-63239.39354395667,-7923.527644230944,-134018.44737293798
49.855414152145386,-63306.56765109955,-8262.148008242093,11643.629807736033
49.86544442176819,-63371.587912088544,-7737.229567307168,81057.37036399319
49.89018630981445,-63430.36332417646,-6965.230082418202,85895.9156078356
49.90519952774048,-63483.031593407235,-6362.894917581798,52822.90951248569
49.93536877632141,-63532.16964285777,-6120.063530218431,14193.692050042728
49.96205949783325,-63580.95260989073,-6135.795844781114,-6114.247081200119
49.976154088974,-63630.34237637427,-6217.891483517633,-15205.131782238368
49.98644018173218,-63680.43887362701,-6379.077953296928,-28889.07967025034
50.014885902404785,-63732.40762362702,-6680.116758241638,-52098.536229294725
50.03271412849426,-63787.32074175888,-7212.654532965644,-80942.00721149036
50.045411109924316,-63847.81009615447,-7975.188873625484,-109942.4257384669
50.06529784202576,-63914.923763736886,-8971.733344781114,-155441.11650083892
50.08574461936951,-63991.35782967097,-10462.246737638907,-198289.1376200939
50.10526514053345,-64082.31971153911,-12144.359546702617,-160118.6899037259
50.12570381164551,-64185.66758241821,-13024.145776098521,-12408.246050910066
50.14616107940674,-64290.706043956685,-12342.891483517178,186987.57297383394
50.16538763046265,-64383.153846154484,-10032.344608517178,367131.15985568834
50.1898136138916,-64451.22355769296,-6468.792925826165,492933.3361952217
50.20569062232971,-64486.6545329677,-2145.4112293936305,556507.823231641
50.225197553634644,-64485.55013736326,2435.3322458800903,555389.0689386947
50.248400926589966,-64447.68921703362,6740.813873625484,506426.80073841003
50.26572108268738,-64377.69711538525,10538.161057694651,444935.5576064988
50.29612064361572,-64279.07864011051,13859.782795329465,377767.374227119
50.31192994117737,-64155.94059065998,16582.439045328556,290610.5125343288
50.32670211791992,-64013.75961538525,18509.550995878726,182395.8512190984
50.3465461730957,-63859.78777472592,19500.77266483413,70144.82099938845
50.36514663696289,-63701.747252747904,19631.86813186894,-25133.070054778273
50.3895206451416,-63545.677884616016,19098.643543957678,-95513.98308730086
50.40675592422485,-63396.16895604458,18103.644402472128,-142944.33593761368
50.42521786689758,-63256.01957417646,16811.53416895586,-177581.45175133678
50.44471073150635,-63127.18440934129,15262.34117445074,-213747.80005146476
50.46462368965149,-63011.82211538525,13391.569368132423,-258693.82082757397
50.49002170562744,-62912.91929945117,11123.240041209556,-310423.46325560287
50.50355553627014,-62833.8502747259,8424.793956042777,-365592.53734554886
50.52649807929993,-62778.122596154484,5273.759443680774,-426823.54266815993
50.544334411621094,-62749.470123627005,1595.617273352218,-488620.6322973692
50.56372857093811,-62752.59271978085,-2544.170673077133,-515502.9296875284
50.59139537811279,-62790.17685439624,-6652.429601648237,-450458.2331730944
50.60728740692139,-62859.03159340722,-9751.502403846644,-279051.39294304606
50.62543296813965,-62946.200892857785,-11117.251888736973,-77435.50394911836
50.64323592185974,-63036.90762362701,-10990.470467032537,65697.97390119448
50.663330078125,-63122.048420330306,-10066.084306317862,129532.69874660122
50.695945024490356,-63197.9649725281,-8917.947287086918,137579.94934741192
50.71277141571045,-63264.7355769237,-7864.805116759271,113416.73463240909
50.727007150650024,-63323.801854396246,-7103.279532968372,75079.94934763928
50.750181913375854,-63378.38804945119,-6663.525927197043,48487.401270676855
50.7646324634552,-63430.4182692314,-6327.4811126375425,38653.36323821111
50.795655965805054,-63479.62774725339,-6045.072115385665,23772.85800145046
50.80919885635376,-63527.13942307757,-5947.115384614335,-339.3822972839189
50.82353067398071,-63574.78159340722,-6050.5022321422075,-19572.83439224966
50.846455097198486,-63623.947458791845,-6260.28073489033,-26855.468750056843
50.866934061050415,-63674.946085165466,-6480.189732143117,-27758.252489718416
50.88321256637573,-63727.630494506135,-6704.412774725824,-53563.379979379984
50.91332197189331,-63782.21668956108,-7337.203811813197,-125065.73016824518
50.93106150627136,-63845.025755495146,-8705.464457417747,-169283.35336535837
50.95504093170166,-63921.50412087976,-10045.73746565893,-97742.10164832197
50.97016167640686,-64005.75755494569,-10269.338083790899,67262.08361945396
51.001158475875854,-64085.81353022042,-8969.544127747668,247690.0540865188
51.0038537979126,-64149.27026098965,-6306.297218406598,385665.72587563994
51.024922132492065,-64186.71428571492,-2798.892513737428,453536.8196256684
51.048635959625244,-64194.05254120945,950.2918956040958,460641.04352689127
51.06350874900818,-64171.50961538526,4571.364182692832,425554.5479910836
51.09506177902222,-64120.910714286365,7759.1646634614335,365376.5667926052
51.11111664772034,-64047.362980769874,10417.389251374516,302707.5463598976
51.125256061553955,-63954.23248626437,12602.485405219795,244608.7847698095
51.1465048789978,-63845.72321428636,14331.129807691468,178905.4451407992
51.1640260219574,-63724.93440934131,15464.972527472582,97700.51725627127
51.19071078300476,-63598.2836538468,15894.338083791808,17930.921617534066
51.20525503158569,-63470.62500000064,15751.867273353128,-44469.81241417802
51.225659132003784,-63346.253777473146,15182.82108516496,-87720.26313545211
51.24435305595398,-63227.699862638,14348.343063185894,-114908.40702259674
51.263320207595825,-63116.68028846217,13344.286572803412,-139327.83525061153
51.2901816368103,-63014.191277473146,12119.097699176109,-174692.00721160404
51.30274748802185,-62922.774725275354,10549.214457417747,-221534.8128434016
51.3263623714447,-62845.40384615446,8574.540693681683,-278859.56816624
51.34776258468628,-62785.58207417645,6087.461366757907,-352234.55743479804
51.36348509788513,-62748.004464286336,2938.787774724915,-433018.27566958196
51.38163900375366,-62738.56146978085,-840.8310439554043,-494973.65427535557
51.418763875961304,-62761.45776098962,-4980.790693680774,-486738.60319374286
51.4359769821167,-62818.25412087974,-8628.64869505529,-352654.4256525028
51.44415807723999,-62899.51614011051,-10623.26150412082,-142242.76699869166
51.46877431869507,-62988.226304945674,-10904.532967034356,23073.97192640792
51.48739528656006,-63073.98866758306,-10254.077953298292,106241.41483523886
51.52349233627319,-63152.29155219845,-9204.670329670535,124038.1932522041
51.52428460121155,-63221.263392857785,-8269.466861263027,86486.14569034407
51.54223275184631,-63284.603021978655,-7820.891998625029,35527.826665514796
51.5734589099884,-63346.397664835786,-7701.02163461479,-1789.4702955061348
51.588555097579956,-63407.81936813249,-7849.5235233531275,-38759.336366780415
51.6014039516449,-63471.990041209436,-8321.171016483277,-65229.814131072315
51.63085103034973,-63540.958104396224,-8893.200549450285,-68791.31610583044
51.650883436203,-63614.28125000064,-9421.832074176564,-71213.94230767919
51.68194007873535,-63691.70741758305,-10032.623626373152,-79305.46016481798
51.68350887298584,-63774.80322802261,-10690.719436813652,-76017.61031943966
51.70621037483215,-63862.75892857207,-11248.905391484186,-80194.82958445678
51.729756116867065,-63954.78571428636,-11973.83671016496,-120359.98669296077
51.74910235404968,-64054.34031593471,-13174.665178571558,-141813.50875679756
51.77817940711975,-64165.5803571435,-14242.85285027372,-68125.96583105801
51.79827928543091,-64282.22596153909,-14264.680631868487,93189.28142155868
51.806464433670044,-64393.8152472534,-12751.824347528782,285428.5606971416
51.8318977355957,-64486.25515109955,-9697.82366071422,438849.4805975824
51.84812378883362,-64548.980425824826,-5730.232657967463,507267.8786057736
51.881953954696655,-64577.93887362703,-1581.537603021843,506949.959220492
51.88316226005554,-64574.285027473175,2380.9666895604096,479050.856370236
51.90100359916687,-64539.84340659406,6083.276098901933,439640.92548085883
51.93135213851929,-64476.952609890744,9415.221497254151,387720.7997080063
51.94751811027527,-64389.199862637994,12286.808894230035,318859.72913786984
51.98210072517395,-64280.363667583064,14516.97716346007,225885.07683727244
51.983179330825806,-64156.92822802263,15900.970123626394,127234.8257213025
52.00068521499634,-64025.94814560504,16552.73437500091,38623.85173422922
52.03280854225159,-63892.08447802262,16518.95175137406,-43473.12843404438
52.05100083351135,-63761.64491758306,15857.1643200562,-106910.7894059016
52.080679416656494,-63638.36984890172,14808.379120879636,-152350.45716016772
52.081374168395996,-63524.71085164898,13419.557005493516,-191046.74622249717
52.101208209991455,-63423.65693681382,11751.63118131968,-214752.53262354954
52.13256335258484,-63336.68475274787,9983.516483516723,-236862.01493836733
52.15140199661255,-63263.920673077555,7961.838942305803,-288295.2008928612
52.1825635433197,-63209.295329670975,5370.793269230944,-356476.16543593584
52.18341255187988,-63177.98798076986,2258.2202953308297,-414580.29275418085
52.199995040893555,-63173.16380494568,-1262.4914148359494,-457841.4749313993
52.23328375816345,-63198.187843407235,-5067.2433035715585,-447737.8090658135
52.25343370437622,-63254.23969780283,-8426.296359888966,-329279.9729567264
52.26100564002991,-63333.00858516546,-10335.72287087918,-136406.1963428469
52.28429937362671,-63419.61126373689,-10608.795501374516,36739.13976646759
52.30096673965454,-63502.74931318745,-9747.8966346157,131163.88006528723
52.334054946899414,-63575.577609890744,-8510.17342032992,139424.41835504837
52.35029482841492,-63638.91208791273,-7517.1059409349255,103404.28614361485
52.377331018447876,-63695.8513049457,-6855.7048420320825,74727.15273016207
52.379565715789795,-63748.60336538524,-6321.4714972523325,63460.46531589877
52.39902997016907,-63796.99484890174,-5840.337396977702,51882.565676464765
52.41956663131714,-63842.048763736886,-5491.350446428896,28339.09254803757
52.45670700073242,-63884.8564560446,-5386.911916209101,-9427.584134527933
52.45935249328613,-63928.23935439623,-5642.191792581343,-48575.93578299202
52.480082750320435,-63975.131524725904,-6164.126888736973,-68213.15891156132
52.501959562301636,-64026.86538461602,-6733.602335166324,-77741.35044641639
52.51950120925903,-64082.869162088566,-7407.988495879636,-119818.0481626423
52.548378705978394,-64145.3932005501,-8650.691105768601,-175681.98403154156
52.56433463096619,-64221.28021978086,-10218.9002403843,-146033.65384618883
52.58207130432129,-64308.895604396246,-10987.229567307622,-2112.7554087172484
52.60304546356201,-64397.075892857785,-10252.704326923777,188294.12774721277
52.621028900146484,-64472.93887362703,-7974.523523352218,358728.42977340723
52.64255428314209,-64524.66826923142,-4513.049450549261,470634.71196781844
52.66652822494507,-64545.147664835815,-444.36813186712243,521403.88907960756
52.68175387382507,-64531.778159341295,3829.41277472446,520709.02730073954
52.70968818664551,-64483.87706044022,7886.97630494471,476765.05623292085
52.727431535720825,-64405.58653846218,11457.653674451194,414937.1136676052
52.75667381286621,-64300.554601649004,14525.970123626394,348149.89697812847
52.77598690986633,-64173.17101648416,17028.05202610125,272193.99253090157
52.77997803688049,-64028.105769231384,18881.07400412082,181753.30528814014
52.80887198448181,-63871.073832418224,19936.104910711492,81200.90358863762
52.82846808433533,-63709.12809066,20180.28846153902,-7373.851733973424
52.857441425323486,-63548.1892170336,19818.123282967917,-73672.78717379122
52.85908126831055,-63392.038118132514,19001.52386675836,-123488.20612984923
52.88093018531799,-63244.164835165466,17842.31198489033,-165792.94728703075
52.90276002883911,-63106.56112637427,16348.83671016587,-205145.19660019912
52.92038059234619,-62982.58344780281,14559.988839287143,-246877.14629129687
52.9498553276062,-62873.601304945674,12398.80236950512,-298731.5418957337
52.96697545051575,-62784.20260989073,9780.284168955404,-356759.207589306
52.9998996257782,-62717.11675824239,6690.6550480762235,-420318.9388736064
53.016013383865356,-62677.15212912151,3055.181146977702,-481461.4096839591
53.01715898513794,-62668.233859890744,-1012.7275068671224,-508068.713513012
53.04952931404114,-62693.355769231384,-5073.918269230489,-441176.8651271757
53.06657886505127,-62749.41655219843,-8071.557348901933,-263476.02592721843
53.10246920585632,-62822.500686813815,-9289.534684065984,-60748.08980071111
53.11837911605835,-62898.04910714349,-9043.526785713311,73004.75403508244
53.11933898925781,-62967.19711538523,-8121.458619504665,118122.47810772191
53.15075945854187,-63027.99244505556,-7153.567135989761,107358.82769563432
53.167826652526855,-63081.654189561064,-6403.717376374516,75169.82529196526
53.203471183776855,-63130.451923077555,-5950.8499313183165,41506.58911405003
53.20418405532837,-63176.86778846216,-5739.611950549715,18535.90745182032
53.22059464454651,-63222.28571428635,-5654.275412089191,7340.315934129649
53.24392580986023,-63267.336195055585,-5622.166895603641,-3574.9162945535318
53.27543783187866,-63312.24038461601,-5711.474072802048,-26956.076150497665
53.27851152420044,-63358.71978022042,-6053.464114011604,-50598.81524724119
53.3015718460083,-63409.095810440194,-6521.055116757907,-55579.55228360356
53.32031798362732,-63463.056662088544,-6942.736950549261,-46896.4629120876
53.34979319572449,-63520.17960164898,-7271.3985233513085,-39786.87328299202
53.36535382270813,-63579.399038462165,-7579.326923077133,-70382.25446433443
53.400827407836914,-63641.44883241822,-8397.51459478066,-142517.76055974117
53.401926040649414,-63713.759271978655,-9859.611092032992,-159751.13753430036
53.416879653930664,-63799.202609890744,-10953.532795329465,-55401.14182699085
53.44430589675903,-63889.01579670393,-10746.029361264846,121489.47244151031
53.4611120223999,-63971.13907967098,-9009.7012362653,296088.9208449089
53.499587535858154,-64033.17101648417,-6008.606627746303,422262.67384964443
53.500401973724365,-64067.27678571492,-2253.4984546709893,485263.02798757114
53.51651453971863,-64069.22699175891,1755.6018200548351,487344.9304602673
53.544315814971924,-64039.187156594046,5544.020432693287,442072.9417067548
53.56641244888306,-63980.522664835815,8828.768887362912,380813.7663117463
53.57790541648865,-63897.92685439624,11637.040693681229,325226.1654361064
53.60071277618408,-63794.330013736915,14032.387534340614,263852.9683208333
53.618247747421265,-63673.40865384679,15858.688186814561,182128.90625
53.64880561828613,-63540.59100274788,16946.450034340614,87649.1672388795
53.664971590042114,-63402.26545329734,17261.074862636633,-2684.205442989196
53.69756817817688,-63264.413804945696,16903.502747252787,-218396.88204408958
53.69833564758301,-63131.809409341295,13766.7247499312,-57390.72092632113
53.71532320976257,-63044.1462089468,15985.251212431649,394233.9336490477
53.74369931221008,-62876.04538994239,20074.467688315963,113108.9784412893
53.76110553741455,-62722.95472593374,17794.994867492278,-335334.5333972015
53.79152870178223,-62591.32547206251,14709.115153960738,-436135.39498568344
53.80547523498535,-62487.60888347037,10816.828547721343,-536936.2565741085
53.815131425857544,-62418.25621529897,6118.135048775002,-637737.1181625335
53.84886574745178,-62389.71872268997,613.0346571208065,-738537.979750987
53.86427664756775,-62408.44766078504,-5698.47262724079,-839338.8413393836
53.89413642883301,-62480.89428472582,-12816.386804309332,-940139.702927837
53.89517617225647,-62613.50984965399,-20740.707874086183,-1040940.5645162906
53.915236949920654,-62812.7456107112,-29471.43583656998,-1141741.426104687
53.94282293319702,-63085.05282303911,-39008.570691761175,-906706.5003727635
53.95772457122803,-63436.88274177938,-43978.739842534196,-621271.1438466277
