timestamp,Crudo,Filtrado,Normalizado
1761575731.9168942,-155.0,-5.703479293666178e-57,0.4422
1761575731.9374952,-149.0,-1.4830659793095128e-56,0.4422
1761575731.959708,-143.0,-1.7181346457138928e-56,0.4422
1761575731.9769719,-140.0,-1.053092841059903e-56,0.4422
1761575731.9967086,-134.0,2.674803607812992e-57,0.4422
1761575732.0168197,-127.0,1.6025309621514441e-56,0.4421
1761575732.0369859,-129.0,2.214177718511487e-56,0.4421
1761575732.057207,-123.0,1.6623025367129644e-56,0.4421
1761575732.0764823,-119.0,8.889281948617938e-58,0.4421
1761575732.096384,-112.0,-1.7803264783142413e-56,0.4421
1761575732.1165664,-108.0,-2.9567585461747645e-56,0.4421
1761575732.1365447,-106.0,-2.699164826941067e-56,0.4421
1761575732.1562116,-101.0,-9.571350813204179e-57,0.4421
1761575732.175481,-102.0,1.5064903319625592e-56,0.4421
1761575732.1955817,-100.0,3.425805257625503e-56,0.4421
1761575732.2155414,-99.0,3.6622729809259657e-56,0.4421
1761575732.2355316,-96.0,1.8507219343305398e-56,0.4421
1761575732.2556233,-95.0,-1.293874143089044e-56,0.4421
1761575732.2761664,-91.0,-4.224402887797574e-56,0.4421
1761575732.2961051,-93.0,-5.302730235053567e-56,0.442
1761575732.315714,-89.0,-3.69148986770702e-56,0.442
1761575732.3353739,-87.0,7.547019991939842e-58,0.442
1761575732.3554025,-86.0,4.202341891938314e-56,0.442
1761575732.3760896,-88.0,6.45172777570018e-56,0.442
1761575732.3954551,-85.0,5.319171673925907e-56,0.442
1761575732.4156666,-80.0,9.613424291146412e-57,0.442
1761575732.4353926,-78.0,-4.667379632245985e-56,0.442
1761575732.4554465,-69.0,-8.651489550953385e-56,0.442
1761575732.4754617,-71.0,-8.593040819182382e-56,0.442
1761575732.4956245,-73.0,-4.0027797096934886e-56,0.442
1761575732.5160675,-76.0,3.175140332194964e-56,0.442
1761575732.5360932,-76.0,9.309802950270194e-56,0.442
1761575732.5558608,-74.0,1.0859297608394913e-55,0.442
1761575732.5761592,-72.0,6.333657619806606e-56,0.4419
1761575732.5960722,-76.0,-2.6120949602737224e-56,0.4419
1761575732.61605,-77.0,-1.1672623741895168e-55,0.4419
1761575732.6360302,-76.0,-1.5912500023566793e-55,0.4419
1761575732.6560185,-78.0,-1.2400799884940521e-55,0.4419
1761575732.6778162,-80.0,-2.0898951090393426e-56,0.4419
1761575732.6965184,-82.0,1.0196195596404894e-55,0.4419
1761575732.7152915,-83.0,1.7906652905444495e-55,0.4419
1761575732.7345054,-85.0,1.6141566855935834e-55,0.4419
1761575732.754843,-89.0,4.564766689875632e-56,0.4419
1761575732.7748742,-85.0,-1.1812901322606961e-55,0.4418
1761575732.7974262,-82.0,-2.4690227645675574e-55,0.4418
1761575732.8154223,-89.0,-2.6612082867525483e-55,0.4418
1761575732.8345783,-90.0,-1.5181176901015336e-55,0.4418
1761575732.85415,-94.0,4.9626266577768225e-56,0.4418
1761575732.8743806,-99.0,2.3775616318975617e-55,0.4419
1761575732.8949523,-102.0,3.062816559457229e-55,0.4419
1761575732.9153705,-109.0,2.0071364019365057e-55,0.4418
1761575732.9354181,-107.0,-4.496064235538883e-56,0.4418
1761575732.954857,-106.0,-3.1549563180105972e-55,0.4418
1761575732.9779422,-107.0,-4.6721080251704835e-55,0.4418
1761575732.994858,-113.0,-4.032790395982589e-55,0.4418
1761575733.0145628,-111.0,-1.3299485171541133e-55,0.4418
1761575733.0351079,-119.0,2.1962368380869948e-55,0.4418
1761575733.0550704,-116.0,4.69159002666817e-55,0.4419
1761575733.0752988,-122.0,4.6271381161251695e-55,0.4419
1761575733.0953104,-122.0,1.6803985903284242e-55,0.4419
1761575733.1146312,-121.0,-2.9328780307672865e-55,0.4419
1761575733.1361196,-121.0,-6.929253211194421e-55,0.4419
1761575733.155038,-123.0,-8.0747587704296e-55,0.4419
1761575733.1745996,-124.0,-5.417836543297008e-55,0.4419
1761575733.1946964,-132.0,2.4232200707201602e-57,0.4419
1761575733.215268,-129.0,5.5720899139140135e-55,0.442
1761575733.2352605,-129.0,8.142454926320643e-55,0.442
1761575733.255269,-127.0,5.8881028967586444e-55,0.442
1761575733.2753215,-128.0,-6.319866171846199e-56,0.442
1761575733.2953372,-133.0,-8.454254544056476e-55,0.442
1761575733.315421,-136.0,-1.3531740332285375e-54,0.4421
1761575733.3365028,-135.0,-1.2817050457522526e-54,0.4421
1761575733.3546953,-132.0,-6.060653653909171e-55,0.4421
1761575733.3750105,-140.0,3.698069841242498e-55,0.4421
1761575733.3952444,-132.0,1.1381461483980886e-54,0.4421
1761575733.4145021,-141.0,1.2399579909888243e-54,0.4421
1761575733.4343183,-137.0,5.226837376024175e-55,0.4422
1761575733.4540927,-140.0,-7.377359742112969e-55,0.4422
1761575733.4743009,-140.0,-1.9343709814034453e-54,0.4422
1761575733.494685,-144.0,-2.420487389249111e-54,0.4422
1761575733.514149,-149.0,-1.859060858683069e-54,0.4422
1761575733.5347135,-156.0,-4.463333791613961e-55,0.4423
1761575733.5541167,-161.0,1.1288749205442008e-54,0.4423
1761575733.5734842,-170.0,2.0008168466683555e-54,0.4423
1761575733.5936031,-169.0,1.5787742174558054e-54,0.4423
1761575733.613807,-176.0,-9.533337456667265e-56,0.4423
1761575733.6341925,-181.0,-2.2913645599134605e-54,0.4422
1761575733.6541994,-185.0,-3.9054156346400505e-54,0.4422
1761575733.6755476,-193.0,-4.018047750703933e-54,0.4422
1761575733.6941845,-194.0,-2.4207842303743273e-54,0.4423
1761575733.7134395,-197.0,1.8139765226207555e-55,0.4423
1761575733.7334697,-201.0,2.4425853386838303e-54,0.4423
1761575733.7533524,-202.0,3.032991191069271e-54,0.4423
1761575733.773772,-208.0,1.3683188676749696e-54,0.4423
1761575733.7940502,-206.0,-1.9789355332870237e-54,0.4423
1761575733.8139164,-204.0,-5.450605929792655e-54,0.4423
1761575733.8348982,-208.0,-7.234462310431922e-54,0.4423
1761575733.853721,-214.0,-6.224842699728894e-54,0.4424
1761575733.8736293,-212.0,-2.714756462435311e-54,0.4424
1761575733.8932643,-215.0,1.5922093116576245e-54,0.4424
1761575733.913147,-218.0,4.340087260671231e-54,0.4424
1761575733.9330182,-213.0,3.7283429253622273e-54,0.4425
1761575733.9533014,-220.0,-4.364139388043927e-55,0.4425
1761575733.973918,-221.0,-6.439175179993535e-54,0.4425
1761575733.9938173,-222.0,-1.1362125206400732e-53,0.4425
1761575734.0140848,-223.0,-1.25339879292702e-53,0.4425
1761575734.0339906,-231.0,-9.021181710222032e-54,0.4426
1761575734.0540404,-226.0,-2.3505291335928286e-54,0.4426
1761575734.07401,-229.0,4.025020602809206e-54,0.4426
1761575734.0936391,-235.0,6.378207359098267e-54,0.4426
1761575734.11298,-241.0,2.709419555938325e-54,0.4426
1761575734.1333063,-245.0,-5.953040026978326e-54,0.4426
1761575734.1544979,-246.0,-1.5749991213425883e-53,0.4426
1761575734.1724753,-248.0,-2.1759114958618803e-53,0.4426
1761575734.1920772,-260.0,-2.055717034206412e-53,0.4426
1761575734.2120779,-265.0,-1.227257410775865e-53,0.4426
1761575734.2322884,-273.0,-9.454731165997611e-55,0.4426
1761575734.253208,-279.0,7.205223533944037e-54,0.4426
1761575734.273006,-283.0,6.912996278567471e-54,0.4426
1761575734.2930725,-288.0,-3.149209888688534e-54,0.4426
1761575734.3130453,-288.0,-1.9174759850292864e-53,0.4426
1761575734.3330271,-299.0,-3.3689214152600866e-53,0.4426
1761575734.3530095,-300.0,-3.919460293995119e-53,0.4426
1761575734.373078,-307.0,-3.226297012901929e-53,0.4426
1761575734.3928287,-305.0,-1.5897898959800658e-53,0.4426
1761575734.413224,-315.0,1.3321416299860428e-54,0.4426
1761575734.4329612,-310.0,9.300773541109058e-54,0.4426
1761575734.453067,-311.0,1.6581632375951482e-54,0.4426
1761575734.4730508,-317.0,-2.0260576918658983e-53,0.4426
1761575734.4932134,-317.0,-4.7255855651757775e-53,0.4427
1761575734.5130377,-316.0,-6.635423458445905e-53,0.4427
1761575734.533145,-324.0,-6.744421114042489e-53,0.4427
1761575734.5529873,-323.0,-4.91384173932901e-53,0.4427
1761575734.573005,-325.0,-2.0572180924767205e-53,0.4427
1761575734.593065,-327.0,2.3239272187900936e-54,0.4427
1761575734.6130123,-328.0,4.6978809115588337e-54,0.4427
1761575734.6330507,-328.0,-1.9008599511364034e-53,0.4428
1761575734.6530757,-333.0,-6.094399144145664e-53,0.4428
1761575734.6727753,-337.0,-1.025585241001533e-52,0.4428
1761575734.6931274,-338.0,-1.2346932313911315e-52,0.4428
1761575734.7130613,-336.0,-1.1236953328583687e-52,0.4428
1761575734.733009,-340.0,-7.427356975252999e-53,0.4428
1761575734.751915,-338.0,-2.9717725544243417e-53,0.4428
1761575734.7719412,-341.0,-5.407536991239988e-54,0.4428
1761575734.7919075,-339.0,-2.0407256764805314e-53,0.4428
1761575734.8119354,-338.0,-7.487729583727859e-53,0.4428
1761575734.831928,-341.0,-1.4779687803417519e-52,0.4428
1761575734.8518734,-343.0,-2.0596424644515287e-52,0.4429
1761575734.8719437,-347.0,-2.2068749742083077e-52,0.4429
1761575734.8919098,-349.0,-1.8396849347251014e-52,0.4429
1761575734.911992,-350.0,-1.1530213934859628e-52,0.4429
1761575734.9326131,-351.0,-5.429277627336047e-53,0.4429
1761575734.9518697,-354.0,-4.1459308245479525e-53,0.4429
1761575734.971295,-355.0,-9.631248450095524e-53,0.4429
1761575734.991223,-359.0,-2.043300007139541e-52,0.4428
1761575735.0115778,-361.0,-3.209577080916042e-52,0.4428
1761575735.0317414,-364.0,-3.9243303092745625e-52,0.4428
1761575735.0519724,-368.0,-3.840393668473317e-52,0.4428
1761575735.0719156,-366.0,-3.0126478991543613e-52,0.4428
1761575735.0923684,-364.0,-1.9152200952467523e-52,0.4428
1761575735.111943,-370.0,-1.2324624652843614e-52,0.4428
1761575735.1318908,-369.0,-1.5113972259186331e-52,0.4428
1761575735.1548486,-367.0,-2.8488748113072762e-52,0.4428
1761575735.1742127,-368.0,-4.7877694850747544e-52,0.4428
1761575735.1915898,-375.0,-6.502804955635756e-52,0.4428
1761575735.2112603,-373.0,-7.208192775622565e-52,0.4428
1761575735.231403,-379.0,-6.590709674068501e-52,0.4428
1761575735.2517824,-376.0,-5.0354257597560226e-52,0.4428
1761575735.2719107,-378.0,-3.497436481052813e-52,0.4428
1761575735.2926698,-376.0,-3.048810284279403e-52,0.4428
1761575735.3117797,-380.0,-4.310082283703453e-52,0.4428
1761575735.3319023,-381.0,-7.062430490195787e-52,0.4428
1761575735.3519487,-384.0,-1.0272227781176371e-51,0.4428
1761575735.3718927,-382.0,-1.2561750150152139e-51,0.4427
1761575735.391896,-386.0,-1.2920913508965316e-51,0.4427
1761575735.4119532,-387.0,-1.1300358885595042e-51,0.4427
1761575735.4307678,-386.0,-8.749746908391328e-52,0.4427
1761575735.4514189,-386.0,-6.974245993225608e-52,0.4427
1761575735.470899,-392.0,-7.484240913752692e-52,0.4427
1761575735.4910088,-384.0,-1.0754469457639158e-51,0.4427
1761575735.5109506,-385.0,-1.5850966427508474e-51,0.4427
1761575735.5308986,-392.0,-2.0781803768545263e-51,0.4427
1761575735.5507812,-387.0,-2.3463011983924121e-51,0.4427
1761575735.5709283,-397.0,-2.284420131245463e-51,0.4427
1761575735.590838,-393.0,-1.9599968185798733e-51,0.4427
1761575735.6109734,-395.0,-1.5962072832910343e-51,0.4426
1761575735.6308935,-398.0,-1.4686510128168862e-51,0.4426
1761575735.6510863,-398.0,-1.7619295260138437e-51,0.4426
1761575735.6708996,-396.0,-2.4595315320728923e-51,0.4426
1761575735.6909375,-397.0,-3.3306362843216775e-51,0.4426
1761575735.7110443,-399.0,-4.03193040532575e-51,0.4426
1761575735.730881,-399.0,-4.28205239695677e-51,0.4426
1761575735.7510743,-398.0,-4.022033302109758e-51,0.4426
1761575735.7708962,-396.0,-3.472973688983068e-51,0.4426
1761575735.790943,-397.0,-3.048077110995191e-51,0.4425
1761575735.8109398,-395.0,-3.150498373527816e-51,0.4425
1761575735.8308856,-393.0,-3.954044752628945e-51,0.4425
1761575735.8508756,-390.0,-5.2839608143612544e-51,0.4425
1761575735.8708856,-394.0,-6.673772462692225e-51,0.4425
1761575735.8909883,-394.0,-7.587006982512152e-51,0.4425
1761575735.9108713,-394.0,-7.701777315150741e-51,0.4425
1761575735.9307816,-393.0,-7.110670843454473e-51,0.4425
1761575735.950977,-390.0,-6.317923837363134e-51,0.4425
1761575735.9708722,-391.0,-6.012819300023747e-51,0.4425
1761575735.9909298,-392.0,-6.71745299269289e-51,0.4425
1761575736.0108626,-389.0,-8.486180282908623e-51,0.4425
1761575736.0309768,-393.0,-1.082571595499463e-50,0.4425
1761575736.0508769,-391.0,-1.2903807246763077e-50,0.4424
1761575736.0710406,-388.0,-1.3965227946757834e-50,0.4424
1761575736.0899105,-386.0,-1.3752236542504145e-50,0.4424
1761575736.109833,-382.0,-1.2701717525624312e-50,0.4424
1761575736.1299162,-379.0,-1.1787240605305359e-50,0.4424
1761575736.151001,-380.0,-1.2052479409821735e-50,0.4424
1761575736.1698575,-383.0,-1.405514486027174e-50,0.4424
1761575736.189892,-377.0,-1.7513404710432844e-50,0.4424
1761575736.209855,-384.0,-2.1369093666010628e-50,0.4424
1761575736.2299697,-383.0,-2.427941997027179e-50,0.4424
1761575736.2498765,-387.0,-2.5317564178148256e-50,0.4424
1761575736.2698765,-383.0,-2.452497079117762e-50,0.4423
1761575736.2899437,-383.0,-2.299928746447786e-50,0.4423
1761575736.3099914,-382.0,-2.241915141725764e-50,0.4423
1761575736.3298454,-380.0,-2.420179668867376e-50,0.4423
1761575736.3496623,-383.0,-2.871026316688103e-50,0.4423
1761575736.3698657,-380.0,-3.4945840329181675e-50,0.4423
1761575736.3915288,-382.0,-4.094586931468367e-50,0.4423
1761575736.4150424,-377.0,-4.474841907777624e-50,0.4423
1761575736.4293187,-374.0,-4.546259479387578e-50,0.4422
1761575736.4493856,-372.0,-4.387542664799692e-50,0.4422
1761575736.4697883,-368.0,-4.2215462194349564e-50,0.4422
1761575736.4901683,-367.0,-4.310916871457254e-50,0.4422
1761575736.5101266,-363.0,-4.820809858245813e-50,0.4422
1761575736.530107,-363.0,-5.719554687676179e-50,0.4422
1761575736.5499709,-363.0,-6.77528810585846e-50,0.4422
1761575736.570111,-355.0,-7.66084093046515e-50,0.4422
1761575736.5902731,-355.0,-8.121786724607133e-50,0.4422
1761575736.6102397,-352.0,-8.123395525030825e-50,0.4422
1761575736.6299832,-352.0,-7.894513989074919e-50,0.4422
1761575736.650093,-344.0,-7.83338476214818e-50,0.4422
1761575736.6702716,-343.0,-8.31149004475103e-50,0.4422
1761575736.6910126,-333.0,-9.470719952770228e-50,0.4422
1761575736.7094135,-331.0,-1.1123119907933208e-49,0.4422
1761575736.7294545,-326.0,-1.2818687654616938e-49,0.4422
1761575736.748404,-322.0,-1.406266109254877e-49,0.4422
1761575736.768426,-314.0,-1.458067834465553e-49,0.4422
1761575736.789317,-308.0,-1.44932507104833e-49,0.4422
1761575736.8093,-301.0,-1.4295185475302307e-49,0.4422
1761575736.8294635,-295.0,-1.463006973409243e-49,0.4423
1761575736.8481803,-289.0,-1.5959956941481967e-49,0.4423
1761575736.8681786,-285.0,-1.8298001877695215e-49,0.4423
1761575736.889221,-283.0,-2.115573927724244e-49,0.4423
1761575736.908732,-271.0,-2.3756688238500186e-49,0.4423
1761575736.928847,-268.0,-2.5429174042832764e-49,0.4423
1761575736.9488792,-265.0,-2.598476306307442e-49,0.4423
1761575736.9688807,-260.0,-2.587570838077848e-49,0.4423
1761575736.9888759,-253.0,-2.602239147804765e-49,0.4423
1761575737.0105827,-249.0,-2.7368888739137637e-49,0.4423
1761575737.0288682,-243.0,-3.0378351475965657e-49,0.4423
1761575737.0488062,-239.0,-3.4735176381554394e-49,0.4423
1761575737.0691645,-234.0,-3.943746904522827e-49,0.4423
1761575737.0890775,-231.0,-4.327145713811711e-49,0.4423
1761575737.1096246,-218.0,-4.545167428698705e-49,0.4422
1761575737.1291993,-217.0,-4.609783485233834e-49,0.4422
1761575737.1498234,-204.0,-4.627267461120124e-49,0.4422
1761575737.1690493,-204.0,-4.751347277575377e-49,0.4422
1761575737.1892142,-206.0,-5.105708809284051e-49,0.4422
1761575737.20905,-200.0,-5.714565182651785e-49,0.4422
1761575737.2291906,-192.0,-6.479757441194646e-49,0.4422
1761575737.2491288,-189.0,-7.221738948888876e-49,0.4422
1761575737.2690895,-183.0,-7.769037940353538e-49,0.4422
1761575737.2892442,-177.0,-8.052899671458784e-49,0.4422
1761575737.3111103,-170.0,-8.15640919735151e-49,0.4422
1761575737.3293982,-166.0,-8.28667161866159e-49,0.4422
1761575737.349364,-156.0,-8.676965877056566e-49,0.4422
1761575737.3691182,-150.0,-9.464443337749215e-49,0.4422
1761575737.3892784,-146.0,-1.0607008821584543e-48,0.4422
1761575737.408512,-136.0,-1.1888535008302454e-48,0.4422
1761575737.4275086,-131.0,-1.3018924931641687e-48,0.4422
1761575737.4473252,-123.0,-1.3784868672031843e-48,0.4422
1761575737.4673164,-121.0,-1.417503234619727e-48,0.4422
1761575737.4875724,-114.0,-1.4409217466569925e-48,0.4422
1761575737.5081992,-112.0,-1.4845593668163798e-48,0.4421
1761575737.5295706,-110.0,-1.5803390134245293e-48,0.4421
1761575737.5505068,-106.0,-1.7388134347556897e-48,0.4421
1761575737.5673933,-103.0,-1.9414308247387605e-48,0.4421
1761575737.5875146,-102.0,-2.1477528967262178e-48,0.4421
1761575737.6086109,-100.0,-2.3152895591444375e-48,0.4421
1761575737.6286244,-97.0,-2.4225399302543725e-48,0.442
1761575737.6495302,-93.0,-2.4831069000370617e-48,0.442
1761575737.6670005,-92.0,-2.542312206947375e-48,0.442
1761575737.6886375,-89.0,-2.6563123810604734e-48,0.442
1761575737.7092574,-84.0,-2.8631868407852334e-48,0.442
1761575737.7285573,-83.0,-3.1608049273371094e-48,0.4419
1761575737.7474046,-81.0,-3.504157951460444e-48,0.4419
1761575737.769764,-77.0,-3.825633927929709e-48,0.4419
1761575737.7870502,-75.0,-4.06966049978627e-48,0.4419
1761575737.81054,-74.0,-4.2244721003391035e-48,0.4419
1761575737.8269534,-72.0,-4.3335158245925614e-48,0.4419
1761575737.8485363,-74.0,-4.4782061410532096e-48,0.4419
1761575737.8668945,-75.0,-4.7383779070712603e-48,0.4419
1761575737.8895836,-81.0,-5.1495142829345066e-48,0.4418
1761575737.9070015,-73.0,-5.67955459795229e-48,0.4418
1761575737.9269438,-78.0,-6.239863750054247e-48,0.4418
1761575737.9471526,-75.0,-6.727977494344227e-48,0.4418
1761575737.9668682,-83.0,-7.082300341998233e-48,0.4417
1761575737.987178,-85.0,-7.320411395084914e-48,0.4417
1761575738.0074131,-81.0,-7.53856358631938e-48,0.4417
1761575738.0279152,-85.0,-7.86863241852434e-48,0.4417
1761575738.047444,-89.0,-8.411399103616304e-48,0.4417
1761575738.0663707,-98.0,-9.179806810934718e-48,0.4417
1761575738.0864823,-91.0,-1.0083911198546848e-47,0.4416
1761575738.1065297,-96.0,-1.096997194514205e-47,0.4416
1761575738.1265771,-93.0,-1.1698135006440134e-47,0.4416
1761575738.1466079,-99.0,-1.2220680705448766e-47,0.4416
1761575738.1677375,-100.0,-1.2618587537489807e-47,0.4416
1761575738.1864817,-102.0,-1.3072352286303227e-47,0.4416
1761575738.2065105,-109.0,-1.3776083216601333e-47,0.4416
1761575738.2267306,-113.0,-1.4835486482890796e-47,0.4416
1761575738.246985,-114.0,-1.6203251601861e-47,0.4416
1761575738.267145,-116.0,-1.769061637194982e-47,0.4416
1761575738.2868571,-116.0,-1.9056682467848737e-47,0.4416
1761575738.3077612,-124.0,-2.0135175259193352e-47,0.4416
1761575738.3263228,-121.0,-2.0933963838347076e-47,0.4416
1761575738.3468912,-127.0,-2.1650757185330161e-47,0.4416
1761575738.3664668,-131.0,-2.2587917418192937e-47,0.4416
1761575738.3864653,-129.0,-2.4002125690522667e-47,0.4416
1761575738.406529,-127.0,-2.596351035105511e-47,0.4416
1761575738.4269586,-134.0,-2.8301356900081565e-47,0.4416
1761575738.4471376,-133.0,-3.067459167199844e-47,0.4416
1761575738.4671414,-126.0,-3.274168175914882e-47,0.4416
1761575738.4871452,-128.0,-3.434826888244749e-47,0.4417
1761575738.5071733,-137.0,-3.5632943905785787e-47,0.4417
1761575738.5274782,-137.0,-3.6985670372453545e-47,0.4417
1761575738.5465143,-140.0,-3.8866341828928324e-47,0.4418
1761575738.5664933,-141.0,-4.1567314580951287e-47,0.4418
1761575738.5867047,-145.0,-4.504256098331542e-47,0.4418
1761575738.6068735,-148.0,-4.890254439219539e-47,0.4418
1761575738.6270857,-149.0,-5.259441800633241e-47,0.4418
1761575738.6470537,-162.0,-5.568898728864584e-47,0.4418
1761575738.6669984,-163.0,-5.81302152175615e-47,0.4418
1761575738.6870043,-168.0,-6.030867718195456e-47,0.4418
1761575738.707047,-172.0,-6.290147023071278e-47,0.4418
1761575738.725793,-175.0,-6.654146077585595e-47,0.4418
1761575738.7460017,-187.0,-7.14773305578755e-47,0.4419
1761575738.7661135,-189.0,-7.74071725201536e-47,0.4419
1761575738.7858243,-188.0,-8.359307804758232e-47,0.4419
1761575738.8106892,-198.0,-8.922318600356777e-47,0.4419
1761575738.8255045,-197.0,-9.38505849174448e-47,0.4419
1761575738.8452444,-203.0,-9.767974061088202e-47,0.4419
1761575738.8653102,-208.0,-1.0153039225906562e-46,0.4419
1761575738.8854809,-211.0,-1.064659805576769e-46,0.4419
1761575738.9061298,-213.0,-1.132535959384762e-46,0.442
1761575738.9259834,-217.0,-1.2193023992876684e-46,0.442
1761575738.9459991,-217.0,-1.3172037889929516e-46,0.442
1761575738.9661283,-223.0,-1.413846153458134e-46,0.442
1761575738.985973,-225.0,-1.4985444470096662e-46,0.4421
1761575739.0067341,-221.0,-1.5683899521950018e-46,0.4421
1761575739.026007,-228.0,-1.630732997032246e-46,0.4421
1761575739.045551,-230.0,-1.7003816075086446e-46,0.4421
1761575739.0652416,-231.0,-1.792500504425145e-46,0.4422
1761575739.0856469,-236.0,-1.9146155033040395e-46,0.4422
1761575739.1061003,-237.0,-2.0619519577125795e-46,0.4422
1761575739.127058,-245.0,-2.218957852999995e-46,0.4423
1761575739.1456158,-255.0,-2.3668068871092103e-46,0.4423
1761575739.1648395,-260.0,-2.4934271682914684e-46,0.4423
1761575739.1852896,-265.0,-2.6008928629598866e-46,0.4423
1761575739.2063863,-274.0,-2.7059256257784205e-46,0.4423
1761575739.2262306,-277.0,-2.832549614984018e-46,0.4423
1761575739.2452912,-288.0,-3.000085496628675e-46,0.4423
1761575739.265123,-288.0,-3.21250240583088e-46,0.4423
1761575739.2851205,-297.0,-3.455011979784875e-46,0.4423
1761575739.3054845,-299.0,-3.70046304472987e-46,0.4423
1761575739.3259325,-303.0,-3.923058203988991e-46,0.4424
1761575739.3458133,-310.0,-4.11271467637514e-46,0.4424
1761575739.3648167,-308.0,-4.2823818336298485e-46,0.4424
1761575739.386572,-312.0,-4.463668519440713e-46,0.4424
1761575739.4053674,-311.0,-4.691983962804149e-46,0.4424
1761575739.423973,-316.0,-4.988176129741386e-46,0.4425
1761575739.4440646,-320.0,-5.346232863655939e-46,0.4425
1761575739.4644217,-318.0,-5.734283983273799e-46,0.4425
1761575739.484745,-325.0,-6.109677887882877e-46,0.4426
1761575739.5066435,-326.0,-6.44138562790235e-46,0.4426
1761575739.524068,-330.0,-6.728364763165752e-46,0.4426
1761575739.5440593,-334.0,-7.0035752572063784e-46,0.4426
1761575739.5643349,-336.0,-7.320068038547702e-46,0.4427
1761575739.584134,-336.0,-7.72489005742143e-46,0.4427
1761575739.6040902,-339.0,-8.233690384903475e-46,0.4427
1761575739.624163,-343.0,-8.819800782726065e-46,0.4427
1761575739.6440716,-345.0,-9.425106533931864e-46,0.4427
1761575739.6644833,-348.0,-9.98898274147585e-46,0.4428
1761575739.6838555,-343.0,-1.0481456852908891e-45,0.4428
1761575739.704203,-347.0,-1.092311998893887e-45,0.4428
1761575739.724275,-350.0,-1.1379746735709461e-45,0.4428
1761575739.744271,-348.0,-1.1932050703535828e-45,0.4428
1761575739.765971,-349.0,-1.2634461428671417e-45,0.4429
1761575739.7840872,-350.0,-1.3484090844323234e-45,0.4429
1761575739.803963,-354.0,-1.441762996861628e-45,0.4429
1761575739.8254995,-358.0,-1.5340580909771247e-45,0.4429
1761575739.8444204,-359.0,-1.6176213828693938e-45,0.4429
1761575739.8642704,-361.0,-1.6909765736892928e-45,0.4429
1761575739.8842967,-364.0,-1.7603576699036687e-45,0.443
1761575739.904512,-363.0,-1.8372168442841078e-45,0.443
1761575739.9249854,-361.0,-1.9326809153883878e-45,0.443
1761575739.9442594,-367.0,-2.0516498567912716e-45,0.443
1761575739.9644587,-371.0,-2.1896859661835563e-45,0.443
1761575739.9844859,-371.0,-2.334643181669462e-45,0.443
1761575740.0051603,-375.0,-2.4726186071560406e-45,0.443
1761575740.0263033,-378.0,-2.595436315841585e-45,0.443
1761575740.0458117,-373.0,-2.705776194921262e-45,0.443
1761575740.063857,-376.0,-2.8169537016233536e-45,0.443
1761575740.0844433,-377.0,-2.946951212847084e-45,0.443
1761575740.1032424,-379.0,-3.109363357741825e-45,0.443
1761575740.1232057,-381.0,-3.305840935339048e-45,0.443
1761575740.1433623,-386.0,-3.5242534876057795e-45,0.443
1761575740.1632555,-388.0,-3.744114653460283e-45,0.443
1761575740.1840007,-386.0,-3.947046936632676e-45,0.443
1761575740.2039099,-390.0,-4.1271301263516134e-45,0.443
1761575740.2243145,-395.0,-4.2955426513868914e-45,0.443
1761575740.243686,-396.0,-4.4764433262566523e-45,0.443
1761575740.2634983,-396.0,-4.695470145933798e-45,0.443
1761575740.2833915,-398.0,-4.966346510917728e-45,0.443
1761575740.303969,-400.0,-5.2826344961493264e-45,0.443
1761575740.3241525,-399.0,-5.619577034006574e-45,0.443
1761575740.3432994,-397.0,-5.946006465682103e-45,0.443
1761575740.3632631,-394.0,-6.24086730817769e-45,0.443
1761575740.383274,-400.0,-6.505889574617623e-45,0.443
1761575740.4037325,-393.0,-6.767211838850307e-45,0.443
1761575740.4238508,-396.0,-7.064019847982699e-45,0.443
1761575740.4439936,-397.0,-7.429081129862002e-45,0.443
1761575740.4640899,-397.0,-7.870892626427988e-45,0.443
1761575740.487458,-400.0,-8.367219469822562e-45,0.443
1761575740.5030856,-395.0,-8.874598296804836e-45,0.443
1761575740.5232077,-394.0,-9.350210173504947e-45,0.443
1761575740.5433593,-393.0,-9.775516787349732e-45,0.443
1761575740.5640504,-397.0,-1.0169089809956237e-44,0.443
1761575740.5839596,-395.0,-1.0580688224636513e-44,0.443
1761575740.6039147,-392.0,-1.1067987707326672e-44,0.443
1761575740.623869,-391.0,-1.1666850462921344e-44,0.4429
1761575740.6439052,-393.0,-1.2370543248454578e-44,0.4429
1761575740.6658843,-393.0,-1.3129956190913982e-44,0.4429
1761575740.6824076,-391.0,-1.387670398109366e-44,0.4429
1761575740.702133,-394.0,-1.4558837914185037e-44,0.4429
1761575740.7217174,-387.0,-1.5171124412197367e-44,0.4429
1761575740.741944,-387.0,-1.5763059290529733e-44,0.4429
1761575740.7622838,-380.0,-1.6418186886976383e-44,0.4429
1761575740.7827187,-382.0,-1.72131461872601e-44,0.4429
1761575740.8027012,-387.0,-1.8176589438554912e-44,0.4429
1761575740.8227065,-387.0,-1.927009711023312e-44,0.4429
1761575740.8426518,-385.0,-2.040345643129852e-44,0.4429
1761575740.8627057,-388.0,-2.1479325590078792e-44,0.4428
1761575740.882637,-389.0,-2.2446001265867965e-44,0.4428
1761575740.902525,-386.0,-2.33306285755785e-44,0.4428
1761575740.9228358,-389.0,-2.4233115807447533e-44,0.4428
1761575740.9425886,-390.0,-2.5280323404036056e-44,0.4427
1761575740.9627125,-387.0,-2.6561458761435286e-44,0.4427
1761575740.9842172,-385.0,-2.807770840593593e-44,0.4427
1761575741.0057063,-383.0,-2.973458321784351e-44,0.4427
1761575741.0237072,-381.0,-3.138512508405769e-44,0.4427
1761575741.0423353,-375.0,-3.290549126583164e-44,0.4427
1761575741.0623674,-378.0,-3.4265251580574984e-44,0.4427
1761575741.0845582,-371.0,-3.5554039057390473e-44,0.4426
1761575741.1017773,-371.0,-3.694609999281922e-44,0.4426
1761575741.1245146,-372.0,-3.8616006499617663e-44,0.4426
1761575741.1417859,-371.0,-4.064634580253211e-44,0.4426
1761575741.164304,-366.0,-4.2976351777332333e-44,0.4426
1761575741.182467,-363.0,-4.542298395336053e-44,0.4426
1761575741.2025611,-361.0,-4.776989162351601e-44,0.4426
1761575741.2225807,-356.0,-4.988271133499813e-44,0.4426
1761575741.2446513,-353.0,-5.179107400072458e-44,0.4426
1761575741.261757,-352.0,-5.369004884016009e-44,0.4426
1761575741.281998,-341.0,-5.585271862628891e-44,0.4425
1761575741.3017883,-342.0,-5.849266351319934e-44,0.4425
1761575741.3218007,-337.0,-6.164572730930744e-44,0.4425
1761575741.3409638,-328.0,-6.513653108981491e-44,0.4425
1761575741.3611217,-327.0,-6.865566939673267e-44,0.4425
1761575741.3809104,-315.0,-7.191634151420838e-44,0.4425
1761575741.4008007,-306.0,-7.481348589555577e-44,0.4425
1761575741.420833,-300.0,-7.749997482170209e-44,0.4425
1761575741.4409432,-296.0,-8.033113363642198e-44,0.4425
1761575741.4613485,-291.0,-8.369521420703566e-44,0.4425
1761575741.481679,-285.0,-8.781049481155731e-44,0.4425
1761575741.5016484,-279.0,-9.259514078927333e-44,0.4425
1761575741.5216742,-276.0,-9.76866399023783e-44,0.4425
1761575741.5438116,-267.0,-1.0261422601229227e-43,0.4425
1761575741.5609748,-263.0,-1.0704565813526352e-43,0.4425
1761575741.5811307,-257.0,-1.1098240566751207e-43,0.4425
1761575741.6007445,-249.0,-1.147934000959178e-43,0.4425
1761575741.6212137,-248.0,-1.190542494865151e-43,0.4425
1761575741.6416743,-238.0,-1.2426047070090425e-43,0.4425
1761575741.6614919,-236.0,-1.305574482609091e-43,0.4425
1761575741.6835213,-229.0,-1.3763401161040376e-43,0.4424
1761575741.701108,-226.0,-1.4485201681488543e-43,0.4424
1761575741.7207167,-222.0,-1.515639686313355e-43,0.4424
1761575741.7407396,-210.0,-1.5746508323885188e-43,0.4424
1761575741.7612493,-209.0,-1.6279349514063689e-43,0.4424
1761575741.781432,-205.0,-1.6825687908214501e-43,0.4423
1761575741.8017619,-202.0,-1.7469979342797038e-43,0.4423
1761575741.821648,-197.0,-1.826669089841256e-43,0.4423
1761575741.8415964,-190.0,-1.9208758974210236e-43,0.4423
1761575741.8616185,-184.0,-2.0226270898176396e-43,0.4423
1761575741.8818665,-179.0,-2.1218855257563247e-43,0.4423
1761575741.9018905,-170.0,-2.210744617219218e-43,0.4422
1761575741.9216998,-162.0,-2.287934580632335e-43,0.4422
1761575741.942049,-152.0,-2.3601724436454437e-43,0.4422
1761575741.962058,-156.0,-2.4393402547335377e-43,0.4422
1761575741.982068,-145.0,-2.5366276978765332e-43,0.4422
1761575742.00168,-139.0,-2.656512692012508e-43,0.4422
1761575742.0207226,-133.0,-2.793803634070207e-43,0.4422
1761575742.0404043,-123.0,-2.9356144057143737e-43,0.4422
1761575742.0604112,-119.0,-3.067660269317846e-43,0.4421
1761575742.080531,-112.0,-3.1818821702814734e-43,0.4421
1761575742.101245,-109.0,-3.281419113388774e-43,0.4421
1761575742.1210537,-108.0,-3.380011876359247e-43,0.4421
1761575742.1417542,-101.0,-3.495651211463426e-43,0.4421
1761575742.1616313,-106.0,-3.64136292647836e-43,0.4421
1761575742.1802242,-101.0,-3.817825866101769e-43,0.442
1761575742.1997535,-95.0,-4.011960239397353e-43,0.442
1761575742.2197456,-94.0,-4.202788486448823e-43,0.442
1761575742.2400477,-92.0,-4.3720772571526136e-43,0.4419
1761575742.2607088,-90.0,-4.514470930409068e-43,0.4419
1761575742.2805717,-90.0,-4.641620248588344e-43,0.4419
1761575742.3006942,-86.0,-4.77754067090458e-43,0.4419
1761575742.3205888,-82.0,-4.946901402071466e-43,0.4418
1761575742.340629,-82.0,-5.161902464347078e-43,0.4418
1761575742.3605049,-77.0,-5.414669133963421e-43,0.4418
1761575742.3808398,-75.0,-5.679753135417853e-43,0.4418
1761575742.4006944,-75.0,-5.9263097977986675e-43,0.4418
1761575742.4205487,-67.0,-6.1342777080439135e-43,0.4417
1761575742.4410007,-69.0,-6.3062220609719655e-43,0.4417
1761575742.460131,-77.0,-6.468081476795246e-43,0.4417
1761575742.480066,-72.0,-6.657414889315362e-43,0.4417
1761575742.5003204,-73.0,-6.9043402087933476e-43,0.4417
1761575742.5202408,-77.0,-7.214754535156767e-43,0.4416
1761575742.540462,-79.0,-7.565063244904995e-43,0.4416
1761575742.5609658,-76.0,-7.912288135596904e-43,0.4416
1761575742.5840592,-82.0,-8.215504056622763e-43,0.4416
1761575742.5999792,-86.0,-8.458097868247617e-43,0.4415
1761575742.6204927,-89.0,-8.658956566653075e-43,0.4415
1761575742.640446,-85.0,-8.86557467258193e-43,0.4415
1761575742.6606038,-90.0,-9.131162165760435e-43,0.4415
1761575742.6799135,-90.0,-9.486622804974577e-43,0.4414
1761575742.6999888,-95.0,-9.922005737142892e-43,0.4414
1761575742.7199652,-88.0,-1.0388249996470826e-42,0.4414
1761575742.740019,-93.0,-1.082010200902384e-42,0.4414
1761575742.7603211,-95.0,-1.1169782969466871e-42,0.4414
1761575742.780131,-99.0,-1.1434271064665173e-42,0.4414
1761575742.7999358,-105.0,-1.1660962633106709e-42,0.4414
1761575742.8201241,-110.0,-1.1926735905604766e-42,0.4414
1761575742.8399177,-116.0,-1.2299292865810994e-42,0.4414
1761575742.8599072,-113.0,-1.2799973208616291e-42,0.4414
1761575742.8798978,-119.0,-1.3388156633119278e-42,0.4414
1761575742.8999052,-118.0,-1.397756117764121e-42,0.4414
1761575742.9200368,-121.0,-1.447852129019316e-42,0.4413
1761575742.9399645,-127.0,-1.4845839005626666e-42,0.4414
1761575742.9599042,-125.0,-1.5106988599478647e-42,0.4414
1761575742.979896,-130.0,-1.535376850235164e-42,0.4414
1761575742.9999166,-132.0,-1.569863406094449e-42,0.4414
1761575743.019809,-127.0,-1.6216035055570427e-42,0.4414
1761575743.0400488,-129.0,-1.6898946453157125e-42,0.4414
1761575743.0606036,-132.0,-1.7655297823017504e-42,0.4414
1761575743.0804548,-132.0,-1.8349759870264515e-42,0.4414
1761575743.0999057,-131.0,-1.8872458014393387e-42,0.4415
1761575743.1198833,-135.0,-1.92000795581818e-42,0.4415
1761575743.139896,-136.0,-1.94158674001526e-42,0.4415
1761575743.1599631,-140.0,-1.967411597211815e-42,0.4416
1761575743.1799717,-139.0,-2.0123330566081936e-42,0.4416
1761575743.1999106,-147.0,-2.0825673785272068e-42,0.4416
1761575743.2199104,-147.0,-2.1715644732931995e-42,0.4416
1761575743.2398946,-150.0,-2.2623653849742604e-42,0.4416
1761575743.259959,-155.0,-2.3357557991498862e-42,0.4416
1761575743.2799377,-163.0,-2.3803469620123344e-42,0.4416
1761575743.299933,-167.0,-2.3993385879091647e-42,0.4417
1761575743.319955,-172.0,-2.410038213242101e-42,0.4417
1761575743.3390155,-178.0,-2.4357566699659294e-42,0.4417
1761575743.3588986,-177.0,-2.4937612662764295e-42,0.4417
1761575743.378959,-180.0,-2.5854100674961037e-42,0.4417
1761575743.3989553,-185.0,-2.6939578739649263e-42,0.4417
1761575743.4187903,-192.0,-2.7918865277985477e-42,0.4417
1761575743.4387002,-198.0,-2.854659178722756e-42,0.4417
1761575743.4589076,-200.0,-2.8740753328108515e-42,0.4418
1761575743.4788551,-209.0,-2.8640188489437482e-42,0.4418
1761575743.4988549,-207.0,-2.8548442410882762e-42,0.4418
1761575743.5188534,-209.0,-2.8784194855345155e-42,0.4418
1761575743.538864,-215.0,-2.951038510960513e-42,0.4418
1761575743.5588443,-216.0,-3.0631925493558065e-42,0.4419
1761575743.5798054,-218.0,-3.18229308878505e-42,0.4419
1761575743.5988445,-218.0,-3.2680169416985676e-42,0.4419
1761575743.6188457,-223.0,-3.2931368261242615e-42,0.442
1761575743.6388838,-227.0,-3.259131256545852e-42,0.442
1761575743.6588483,-229.0,-3.197735615163707e-42,0.442
1761575743.6788323,-227.0,-3.1563737857802974e-42,0.4421
1761575743.6989074,-229.0,-3.1738854454784674e-42,0.4421
1761575743.718858,-230.0,-3.25873440045471e-42,0.4421
1761575743.73896,-236.0,-3.381613439514879e-42,0.4421
1761575743.7590556,-242.0,-3.4876694751864316e-42,0.4422
1761575743.7786593,-250.0,-3.5234932247031e-42,0.4422
1761575743.7986517,-255.0,-3.4656679586867503e-42,0.4422
1761575743.8186378,-258.0,-3.3356860725250186e-42,0.4423
1761575743.8388686,-267.0,-3.1920402532114894e-42,0.4423
1761575743.858512,-267.0,-3.101751245563886e-42,0.4423
1761575743.8784363,-276.0,-3.104830072954905e-42,0.4423
1761575743.8985038,-288.0,-3.1901371703065786e-42,0.4423
1761575743.9183936,-290.0,-3.296584380213149e-42,0.4423
1761575743.9385214,-291.0,-3.3412306070705445e-42,0.4423
1761575743.9584975,-297.0,-3.261519841011655e-42,0.4423
1761575743.9775364,-300.0,-3.050214427573975e-42,0.4423
1761575743.9976108,-301.0,-2.7636408567900796e-42,0.4423
1761575744.0175524,-305.0,-2.4965131023602612e-42,0.4424
1761575744.0376096,-305.0,-2.3339554884783807e-42,0.4424
1761575744.0575483,-307.0,-2.3045027900956882e-42,0.4424
1761575744.0778363,-313.0,-2.359384603552128e-42,0.4425
1761575744.0975015,-319.0,-2.3914788208092022e-42,0.4425
1761575744.1175358,-320.0,-2.2871837251342647e-42,0.4425
1761575744.137568,-326.0,-1.9862092140657757e-42,0.4426
1761575744.1592448,-327.0,-1.5178828984563348e-42,0.4426
1761575744.1775684,-329.0,-9.924648592170158e-43,0.4426
1761575744.1976354,-332.0,-5.4825741145528684e-43,0.4426
1761575744.2175055,-333.0,-2.7908559473990427e-43,0.4426
1761575744.2376606,-334.0,-1.793711886391346e-43,0.4426
1761575744.257603,-336.0,-1.3778198903857018e-43,0.4427
1761575744.2772741,-341.0,1.2965226048150245e-44,0.4427
1761575744.2984877,-342.0,4.120497954115795e-43,0.4427
1761575744.3173537,-341.0,1.0944002828881094e-42,0.4428
1761575744.3378854,-341.0,1.9639889446533345e-42,0.4428
1761575744.357464,-340.0,2.8351344300724688e-42,0.4428
1761575744.3793604,-338.0,3.525482264966319e-42,0.4428
1761575744.3968828,-346.0,3.95520822492586e-42,0.4429
1761575744.4168284,-349.0,4.199760381334491e-42,0.4429
1761575744.4372857,-349.0,4.463874486218224e-42,0.4429
1761575744.4574115,-353.0,4.984073579768958e-42,0.4429
1761575744.4771771,-353.0,5.905844648665068e-42,0.4429
1761575744.49755,-356.0,7.199215306128658e-42,0.4429
1761575744.5175357,-358.0,8.661294278377379e-42,0.4429
1761575744.538868,-356.0,1.0011833585570997e-41,0.443
1761575744.557971,-360.0,1.1038488912639244e-41,0.443
1761575744.5780444,-361.0,1.1718103929854847e-41,0.443
1761575744.5974998,-361.0,1.2246928554821164e-41,0.443
1761575744.617203,-363.0,1.2955814390642239e-41,0.443
1761575744.6364088,-364.0,1.414608579799758e-41,0.443
1761575744.6566498,-365.0,1.5927367014246757e-41,0.443
1761575744.6768527,-362.0,1.8144506342828364e-41,0.443
1761575744.6966689,-363.0,2.0440357568446425e-41,0.443
1761575744.7162573,-371.0,2.2432287954494195e-41,0.443
1761575744.7370493,-371.0,2.391741246088558e-41,0.4431
1761575744.7566903,-375.0,2.499893767336124e-41,0.4431
1761575744.7759044,-375.0,2.6059181209147595e-41,0.4431
1761575744.7968848,-381.0,2.7580746504521897e-41,0.4431
1761575744.8172953,-378.0,2.989888459790094e-41,0.443
1761575744.8373632,-382.0,3.301200346940117e-41,0.443
1761575744.857158,-385.0,3.6556847637003546e-41,0.443
1761575744.8770216,-385.0,3.9975581137008544e-41,0.443
1761575744.8966446,-393.0,4.280141083021869e-41,0.443
1761575744.9161856,-389.0,4.49196300201958e-41,0.443
1761575744.9361265,-393.0,4.666205720130131e-41,0.443
1761575744.9562695,-392.0,4.867018601646688e-41,0.443
1761575744.9768803,-391.0,5.158091131996466e-41,0.443
1761575744.9964128,-392.0,5.568836005109812e-41,0.443
1761575745.0165484,-391.0,6.07611023464568e-41,0.443
1761575745.0364456,-392.0,6.612581522642937e-41,0.443
1761575745.0563884,-389.0,7.099497615581176e-41,0.443
1761575745.0772624,-395.0,7.488345717178959e-41,0.443
1761575745.0967662,-394.0,7.789818952677711e-41,0.443
1761575745.1165416,-396.0,8.073497198518551e-41,0.443
1761575745.136737,-398.0,8.43595428153118e-41,0.443
1761575745.1563182,-397.0,8.951735950462789e-41,0.443
1761575745.1766055,-396.0,9.63204664293424e-41,0.443
1761575745.1965797,-394.0,1.0413934165155694e-40,0.443
1761575745.2162118,-397.0,1.1188324932262985e-40,0.443
1761575745.2377424,-395.0,1.1855138996516438e-40,0.443
1761575745.2567294,-395.0,1.2378214504803174e-40,0.443
1761575745.2752461,-394.0,1.2810591003714817e-40,0.4429
1761575745.2957125,-396.0,1.3274123443359348e-40,0.4429
1761575745.3159165,-389.0,1.3900534258203478e-40,0.4429
1761575745.3357186,-391.0,1.476227087254302e-40,0.4429
1761575745.3556972,-392.0,1.582936858480771e-40,0.4429
1761575745.3750825,-387.0,1.6977604578847612e-40,0.4429
1761575745.3959677,-395.0,1.8047852590934575e-40,0.4429
1761575745.4160511,-395.0,1.892910337927988e-40,0.4429
1761575745.4354887,-395.0,1.9622639613080562e-40,0.4429
1761575745.4549828,-395.0,2.0251410511877463e-40,0.4429
1761575745.4745345,-394.0,2.100502141458289e-40,0.4429
1761575745.4958909,-395.0,2.20444544415309e-40,0.4428
1761575745.5154727,-392.0,2.341421868220048e-40,0.4428
1761575745.5354962,-393.0,2.500961317642066e-40,0.4428
1761575745.5551834,-395.0,2.6621219837480955e-40,0.4428
1761575745.5761797,-391.0,2.8039203003818794e-40,0.4428
1761575745.5957544,-386.0,2.9166504207686503e-40,0.4428
1761575745.6161044,-390.0,3.008103108338237e-40,0.4428
1761575745.6354673,-388.0,3.100929726493698e-40,0.4427
1761575745.6550293,-386.0,3.2218295596335728e-40,0.4427
1761575745.675512,-386.0,3.3876751636070013e-40,0.4427
1761575745.6954343,-383.0,3.595754214638747e-40,0.4427
1761575745.7154815,-389.0,3.8236952747526135e-40,0.4427
1761575745.7354155,-386.0,4.039918043614151e-40,0.4427
1761575745.755463,-385.0,4.219880657635577e-40,0.4427
1761575745.7754636,-385.0,4.359900798854696e-40,0.4426
1761575745.7954834,-389.0,4.4809477376481425e-40,0.4426
1761575745.8154135,-381.0,4.619546552898921e-40,0.4426
1761575745.8354902,-386.0,4.809602678321664e-40,0.4426
1761575745.8549685,-379.0,5.064131968093682e-40,0.4426
1761575745.8750186,-382.0,5.36667267487264e-40,0.4426
1761575745.895649,-379.0,5.677775819557881e-40,0.4425
1761575745.914407,-379.0,5.95433946728165e-40,0.4425
1761575745.93434,-377.0,6.1724900490427306e-40,0.4425
1761575745.953844,-371.0,6.342049546845484e-40,0.4425
1761575745.9738934,-366.0,6.504149836916564e-40,0.4425
1761575745.994042,-367.0,6.711886790930781e-40,0.4425
1761575746.014052,-364.0,7.002979991412742e-40,0.4425
1761575746.0339413,-370.0,7.378420794296896e-40,0.4425
1761575746.0540488,-366.0,7.799032226710085e-40,0.4425
1761575746.0752578,-367.0,8.203251078110488e-40,0.4425
1761575746.0949936,-367.0,8.538350600638794e-40,0.4424
1761575746.1140747,-360.0,8.789488143713159e-40,0.4424
1761575746.1340892,-357.0,8.990847825257115e-40,0.4424
1761575746.1543891,-356.0,9.211447262108778e-40,0.4424
1761575746.1738427,-351.0,9.521134143482116e-40,0.4424
1761575746.1942108,-348.0,9.953356229120011e-40,0.4423
1761575746.2139144,-346.0,1.0484371073298872e-39,0.4423
1761575746.2345119,-341.0,1.1041367117427363e-39,0.4423
1761575746.2541924,-336.0,1.153750850303637e-39,0.4423
1761575746.2742457,-332.0,1.1917340606052196e-39,0.4423
1761575746.2951646,-326.0,1.2189096003580488e-39,0.4423
1761575746.3143852,-321.0,1.2425540244446278e-39,0.4423
1761575746.3341694,-312.0,1.2730341126847455e-39,0.4423
1761575746.3538613,-319.0,1.3185154147501406e-39,0.4423
1761575746.3743997,-314.0,1.3804175551084842e-39,0.4423
1761575746.394142,-303.0,1.4521093886878758e-39,0.4423
1761575746.4143114,-300.0,1.521805727629706e-39,0.4423
1761575746.4345365,-292.0,1.5784567093982002e-39,0.4423
1761575746.4542792,-288.0,1.6177209320473843e-39,0.4423
1761575746.474567,-280.0,1.64483243451477e-39,0.4423
1761575746.494187,-278.0,1.6725750909220374e-39,0.4423
1761575746.5143785,-270.0,1.71505149257021e-39,0.4423
1761575746.5344577,-267.0,1.780239766154157e-39,0.4423
1761575746.5537002,-260.0,1.865223019937017e-39,0.4423
1761575746.5743995,-255.0,1.956860534132338e-39,0.4423
1761575746.593368,-242.0,2.037981943817472e-39,0.4423
1761575746.6132324,-237.0,2.0962367584048182e-39,0.4423
1761575746.6331735,-230.0,2.1310787090155768e-39,0.4423
1761575746.65357,-230.0,2.154996994120008e-39,0.4423
1761575746.6739812,-232.0,2.1878707175077424e-39,0.4423
1761575746.6939669,-227.0,2.246911640734603e-39,0.4423
1761575746.7133758,-225.0,2.3372198871474744e-39,0.4423
1761575746.732825,-226.0,2.448054697316315e-39,0.4422
1761575746.753241,-222.0,2.557276048834829e-39,0.4422
1761575746.7729743,-210.0,2.6422393025867357e-39,0.4422
1761575746.7936676,-211.0,2.6918341815609328e-39,0.4421
1761575746.8135874,-208.0,2.7133196500369866e-39,0.4421
1761575746.8330736,-207.0,2.7298793817507647e-39,0.4421
1761575746.8534548,-200.0,2.7694588775891412e-39,0.4421
1761575746.87348,-193.0,2.8501543919719375e-39,0.4421
1761575746.8935535,-189.0,2.9696920166468927e-39,0.4421
1761575746.9136527,-185.0,3.104952880445417e-39,0.4421
1761575746.9332056,-175.0,3.222604733594103e-39,0.442
1761575746.9527721,-175.0,3.296044316234949e-39,0.442
1761575746.9729393,-165.0,3.3200945560628706e-39,0.442
1761575746.993707,-164.0,3.315415528138861e-39,0.442
1761575747.0135522,-159.0,3.3194455464350644e-39,0.442
1761575747.0337505,-155.0,3.367638285101383e-39,0.442
1761575747.0537965,-147.0,3.474253524128333e-39,0.442
1761575747.0745282,-142.0,3.6229386896954e-39,0.442
1761575747.0935907,-140.0,3.7729207997752123e-39,0.442
1761575747.1136932,-136.0,3.878744991780965e-39,0.442
1761575747.1331725,-129.0,3.9140861137895217e-39,0.442
1761575747.1537404,-127.0,3.887224940678912e-39,0.442
1761575747.1747077,-123.0,3.8392475415257106e-39,0.442
1761575747.1953344,-117.0,3.82455191846928e-39,0.442
1761575747.2128117,-114.0,3.882674133139349e-39,0.4419
1761575747.231777,-109.0,4.0158064109471764e-39,0.4419
1761575747.2519925,-105.0,4.1844812345131564e-39,0.4419
1761575747.2719014,-97.0,4.325175192386657e-39,0.4419
1761575747.2924116,-95.0,4.3821645150582223e-39,0.4419
1761575747.3123677,-93.0,4.337733797372798e-39,0.4419
1761575747.3324087,-92.0,4.2244555311605194e-39,0.4419
1761575747.3524904,-92.0,4.1115499669893184e-39,0.4419
1761575747.372751,-92.0,4.0705581074920395e-39,0.4419
1761575747.3924124,-88.0,4.137036334437115e-39,0.4419
1761575747.412344,-87.0,4.28843439793807e-39,0.4418
1761575747.4326265,-90.0,4.451266119582503e-39,0.4418
1761575747.4521172,-81.0,4.536061568194073e-39,0.4418
1761575747.4717658,-82.0,4.483617754927657e-39,0.4418
1761575747.4917617,-84.0,4.298718971063823e-39,0.4418
1761575747.5119374,-81.0,4.052309296488619e-39,0.4418
1761575747.5321503,-81.0,3.848458790138008e-39,0.4417
1761575747.5522504,-77.0,3.770994937726263e-39,0.4417
1761575747.5728195,-77.0,3.8367165839224295e-39,0.4417
1761575747.5927494,-71.0,3.980716562492803e-39,0.4417
1761575747.612707,-69.0,4.084193307007703e-39,0.4417
1761575747.6327012,-71.0,4.0332409689227837e-39,0.4417
1761575747.6529524,-70.0,3.7796413925775984e-39,0.4417
1761575747.6726966,-72.0,3.371325376794051e-39,0.4417
1761575747.692694,-72.0,2.9338318425413233e-39,0.4417
1761575747.7125356,-73.0,2.6088112407162303e-39,0.4417
1761575747.7335265,-74.0,2.4790531619365434e-39,0.4417
1761575747.7545266,-76.0,2.5190412420778858e-39,0.4417
1761575747.7735045,-78.0,2.5994659283154096e-39,0.4417
1761575747.7916737,-78.0,2.54752685686076e-39,0.4416
1761575747.812727,-85.0,2.235187029505513e-39,0.4416
1761575747.8335094,-82.0,1.6504161812784633e-39,0.4416
1761575747.853492,-83.0,9.12018660328987e-40,0.4416
1761575747.8717697,-87.0,2.1569309990003666e-40,0.4416
1761575747.8918314,-88.0,-2.6525236843832878e-40,0.4416
1761575747.910874,-83.0,-4.7503906311920765e-40,0.4416
1761575747.9344957,-87.0,-5.152552640099286e-40,0.4416
1761575747.951515,-86.0,-6.037755455382102e-40,0.4416
1761575747.9707303,-92.0,-9.683728383999651e-40,0.4416
1761575747.9925215,-98.0,-1.7267491881705546e-39,0.4416
1761575748.0107794,-101.0,-2.8160155692046086e-39,0.4416
1761575748.032498,-103.0,-4.013163067318273e-39,0.4416
1761575748.051019,-102.0,-5.0427038652401807e-39,0.4416
1761575748.0710053,-105.0,-5.72079240114767e-39,0.4416
1761575748.0908222,-106.0,-6.061688651370937e-39,0.4416
1761575748.1107512,-110.0,-6.286754021538627e-39,0.4416
1761575748.1312082,-116.0,-6.723569736554838e-39,0.4416
1761575748.1527066,-114.0,-7.640494978261912e-39,0.4416
1761575748.1716983,-120.0,-9.100002214672714e-39,0.4417
1761575748.1916156,-121.0,-1.0910592082044048e-38,0.4417
1761575748.2118933,-118.0,-1.2710650146331084e-38,0.4417
1761575748.2316794,-121.0,-1.4149729844266323e-38,0.4417
1761575748.2516892,-122.0,-1.5078021261123217e-38,0.4417
1761575748.2716768,-122.0,-1.564345090253291e-38,0.4417
1761575748.2916062,-120.0,-1.6237373669462408e-38,0.4417
1761575748.3115854,-129.0,-1.730609580816891e-38,0.4418
1761575748.331622,-129.0,-1.9118464200030188e-38,0.4418
1761575748.351625,-131.0,-2.161022777289669e-38,0.4418
1761575748.371616,-135.0,-2.4394244339750595e-38,0.4418
1761575748.391634,-127.0,-2.694394690889649e-38,0.4419
1761575748.4115999,-131.0,-2.8865531600381935e-38,0.4419
1761575748.4316998,-132.0,-3.012039751793364e-38,0.4419
1761575748.4515996,-138.0,-3.1075207508779237e-38,0.4419
1761575748.4716177,-134.0,-3.233949316660549e-38,0.4419
1761575748.492366,-137.0,-3.4461074375982173e-38,0.442
1761575748.5117002,-138.0,-3.763092381400604e-38,0.442
1761575748.5315993,-138.0,-4.1555788969308333e-38,0.442
1761575748.5506058,-138.0,-4.5579546116802733e-38,0.442
1761575748.5706089,-139.0,-4.90077082906733e-38,0.4421
1761575748.5905867,-140.0,-5.147751957885103e-38,0.4421
1761575748.6133094,-144.0,-5.317956624847742e-38,0.4421
1761575748.6301508,-145.0,-5.480113813610054e-38,0.4421
1761575748.649878,-151.0,-5.7200122267662e-38,0.4422
1761575748.6698725,-159.0,-6.096275163870311e-38,0.4422
1761575748.6900818,-164.0,-6.607235146172189e-38,0.4422
1761575748.711977,-170.0,-7.187446085239644e-38,0.4422
1761575748.7331533,-171.0,-7.737975848081859e-38,0.4422
1761575748.7498255,-177.0,-8.176907639306989e-38,0.4422
1761575748.770019,-182.0,-8.484646897490716e-38,0.4422
1761575748.7897928,-185.0,-8.719450443819977e-38,0.4422
1761575748.8108702,-190.0,-8.992601051518897e-38,0.4422
1761575748.8335097,-192.0,-9.413379071244217e-38,0.4422
1761575748.849887,-195.0,-1.0030883688222267e-37,0.4422
1761575748.8697987,-199.0,-1.0803513763220555e-37,0.4422
1761575748.8900514,-203.0,-1.1614517872349536e-37,0.4423
1761575748.9095023,-202.0,-1.232884543251091e-37,0.4423
1761575748.9296126,-205.0,-1.286412175706586e-37,0.4423
1761575748.9495845,-205.0,-1.3238950021171444e-37,0.4423
1761575748.9694853,-207.0,-1.3571026675026658e-37,0.4423
1761575748.98952,-210.0,-1.4022235641988722e-37,0.4424
1761575749.0096967,-213.0,-1.4715966330474837e-37,0.4424
1761575749.0297818,-212.0,-1.566865398774773e-37,0.4424
1761575749.0503378,-218.0,-1.6773160632665065e-37,0.4424
1761575749.073667,-216.0,-1.7846823712188066e-37,0.4425
1761575749.0901859,-217.0,-1.872346990626452e-37,0.4425
1761575749.1094403,-220.0,-1.9343650533853095e-37,0.4425
1761575749.1299522,-219.0,-1.9794814377775548e-37,0.4425
1761575749.1505573,-221.0,-2.0276165465247936e-37,0.4426
1761575749.1702693,-223.0,-2.1001216012302534e-37,0.4426
1761575749.190337,-225.0,-2.2085280393630233e-37,0.4426
1761575749.2096627,-230.0,-2.347678865203245e-37,0.4426
1761575749.2286983,-225.0,-2.4972399385721722e-37,0.4426
1761575749.2487748,-224.0,-2.631422284589801e-37,0.4427
1761575749.2704558,-228.0,-2.732352810468951e-37,0.4427
1761575749.2887776,-233.0,-2.800237489989709e-37,0.4427
1761575749.3086078,-243.0,-2.854651409797944e-37,0.4427
1761575749.3288727,-249.0,-2.9255935878865443e-37,0.4427
1761575749.350058,-254.0,-3.0383014219521066e-37,0.4427
1761575749.36854,-261.0,-3.1994518181917435e-37,0.4427
1761575749.3886428,-266.0,-3.392214767516059e-37,0.4427
1761575749.4090128,-269.0,-3.5834687600018456e-37,0.4427
1761575749.4304945,-277.0,-3.7402505854485534e-37,0.4427
1761575749.4486737,-278.0,-3.847364442449206e-37,0.4427
1761575749.46875,-284.0,-3.916845516087651e-37,0.4427
1761575749.488953,-287.0,-3.983613893766987e-37,0.4427
1761575749.5087638,-294.0,-4.088592219623681e-37,0.4427
1761575749.5291193,-298.0,-4.257343378910403e-37,0.4427
1761575749.5494664,-296.0,-4.485282837154775e-37,0.4427
1761575749.5693667,-301.0,-4.737848685146578e-37,0.4427
1761575749.5892699,-300.0,-4.96666776512103e-37,0.4427
1761575749.6092467,-305.0,-5.134303324990551e-37,0.4427
1761575749.6293879,-309.0,-5.235033526536663e-37,0.4427
1761575749.6492908,-314.0,-5.30028048988519e-37,0.4427
1761575749.6693146,-313.0,-5.384637644167049e-37,0.4428
1761575749.6892889,-318.0,-5.538484573563297e-37,0.4428
1761575749.7106652,-314.0,-5.7807821821096035e-37,0.4428
1761575749.729238,-321.0,-6.086568044823184e-37,0.4428
1761575749.749331,-322.0,-6.396925357058742e-37,0.4428
1761575749.7693439,-324.0,-6.647799596800612e-37,0.4428
1761575749.7894242,-329.0,-6.80371419492599e-37,0.4428
1761575749.809297,-329.0,-6.878776076386909e-37,0.4428
1761575749.8293607,-331.0,-6.9328164500503825e-37,0.4428
1761575749.8492913,-327.0,-7.042857517502346e-37,0.4428
1761575749.8682508,-330.0,-7.263265971880947e-37,0.4428
1761575749.8883405,-326.0,-7.594988305202892e-37,0.4428
1761575749.908247,-329.0,-7.980950041225454e-37,0.4429
1761575749.9280734,-329.0,-8.33203186974871e-37,0.4429
1761575749.9483278,-329.0,-8.572064416206415e-37,0.4429
1761575749.9684896,-332.0,-8.679278452932624e-37,0.4429
1761575749.9885292,-339.0,-8.70184818284584e-37,0.4429
1761575750.0085223,-340.0,-8.737303317399946e-37,0.4429
1761575750.02858,-341.0,-8.884082449109386e-37,0.4429
1761575750.0485237,-340.0,-9.188969630154956e-37,0.4429
1761575750.068343,-345.0,-9.618124565907572e-37,0.4429
1761575750.0883071,-348.0,-1.0068909536914684e-36,0.4429
1761575750.1082845,-349.0,-1.0419253696933302e-36,0.4429
1761575750.1282973,-349.0,-1.0591043261195443e-36,0.4429
1761575750.1483622,-350.0,-1.0594796191162188e-36,0.4429
1761575750.1682925,-353.0,-1.0530414549516975e-36,0.4429
1761575750.1883109,-355.0,-1.0540339991536914e-36,0.4429
1761575750.2082956,-354.0,-1.0736532955104002e-36,0.4429
1761575750.2280817,-354.0,-1.1138242574976565e-36,0.4429
1761575750.2482383,-355.0,-1.16545345459486e-36,0.4429
1761575750.2682958,-353.0,-1.2124216948088091e-36,0.4429
1761575750.2882817,-354.0,-1.2396153810138835e-36,0.4429
1761575750.308209,-361.0,-1.241016763932948e-36,0.4429
1761575750.3282866,-361.0,-1.2235461233608452e-36,0.4429
1761575750.3482165,-360.0,-1.2042929011973192e-36,0.4429
1761575750.3682494,-362.0,-1.2021204425947147e-36,0.4429
1761575750.3883054,-368.0,-1.227700324464281e-36,0.4429
1761575750.4082334,-367.0,-1.277169928389011e-36,0.4428
1761575750.4282982,-369.0,-1.3330612500273955e-36,0.4428
1761575750.4484255,-369.0,-1.3725447388031873e-36,0.4428
1761575750.468333,-369.0,-1.3791374103431372e-36,0.4428
1761575750.4882658,-370.0,-1.3518934579359143e-36,0.4428
1761575750.5083504,-370.0,-1.3069942499327587e-36,0.4428
1761575750.5272992,-374.0,-1.2703282563379718e-36,0.4428
1761575750.5472143,-375.0,-1.2643478037135185e-36,0.4428
1761575750.5671878,-370.0,-1.2957817675603144e-36,0.4428
1761575750.587127,-366.0,-1.3508133835730974e-36,0.4428
1761575750.6072695,-372.0,-1.4008432903771785e-36,0.4428
1761575750.6273196,-376.0,-1.4165488888956802e-36,0.4428
1761575750.6471765,-377.0,-1.3833623704916862e-36,0.4427
1761575750.6672173,-383.0,-1.3102266994438323e-36,0.4427
1761575750.687189,-382.0,-1.2264696293939017e-36,0.4427
1761575750.7071831,-383.0,-1.1675852361060999e-36,0.4427
1761575750.7274117,-385.0,-1.1566795853400877e-36,0.4427
1761575750.7471836,-384.0,-1.1911443403381567e-36,0.4427
1761575750.7671833,-390.0,-1.2420412170746149e-36,0.4426
1761575750.7871788,-392.0,-1.267460060370247e-36,0.4426
1761575750.8071806,-391.0,-1.2337630351416466e-36,0.4426
1761575750.8271964,-392.0,-1.1339794387801142e-36,0.4426
1761575750.847244,-394.0,-9.933445009946683e-37,0.4426
1761575750.8671894,-391.0,-8.580879977708602e-37,0.4426
1761575750.8872414,-395.0,-7.722139652416415e-37,0.4426
1761575750.9077673,-394.0,-7.537566845472444e-37,0.4425
1761575750.9270275,-388.0,-7.831195124430342e-37,0.4425
1761575750.9473357,-394.0,-8.10592405085087e-37,0.4425
1761575750.9675167,-395.0,-7.804500948810098e-37,0.4425
1761575750.9865754,-398.0,-6.600124158198551e-37,0.4425
1761575751.006525,-397.0,-4.585548934951969e-37,0.4425
1761575751.0269487,-397.0,-2.2525663742911403e-37,0.4425
1761575751.047186,-397.0,-2.5744541228150655e-38,0.4425
1761575751.0672421,-397.0,9.184173164687251e-38,0.4425
1761575751.0871844,-397.0,1.239606648604387e-37,0.4425
1761575751.1071763,-402.0,1.1702172092546493e-37,0.4424
1761575751.1271877,-396.0,1.465409756720184e-37,0.4424
1761575751.1475472,-397.0,2.792854865337054e-37,0.4424
1761575751.166401,-397.0,5.3732049680752324e-37,0.4424
1761575751.1855476,-393.0,8.83240238950349e-37,0.4424
1761575751.2056708,-393.0,1.2359901961932507e-36,0.4424
1761575751.225961,-393.0,1.5110868128431734e-36,0.4424
1761575751.24618,-387.0,1.665599835976706e-36,0.4424
1761575751.2662253,-389.0,1.7242968346152234e-36,0.4424
1761575751.286303,-390.0,1.7716604149021075e-36,0.4424
1761575751.3060286,-394.0,1.9115447158119343e-36,0.4424
1761575751.3259778,-393.0,2.213594080983828e-36,0.4424
1761575751.3461614,-396.0,2.6739844317505417e-36,0.4424
1761575751.3662062,-394.0,3.2124262527028975e-36,0.4424
1761575751.386277,-396.0,3.709658557327295e-36,0.4423
1761575751.4065025,-396.0,4.0684159827195474e-36,0.4423
1761575751.4262266,-394.0,4.2671208230790524e-36,0.4423
1761575751.4459732,-394.0,4.3771933514296595e-36,0.4423
1761575751.4662852,-396.0,4.5321284382339255e-36,0.4423
1761575751.4861653,-396.0,4.8613010889869446e-36,0.4423
1761575751.5061069,-393.0,5.421176570009566e-36,0.4423
1761575751.5262418,-396.0,6.160349091616747e-36,0.4423
1761575751.5464432,-392.0,6.939465140027844e-36,0.4422
1761575751.5664387,-387.0,7.599399867321715e-36,0.4422
1761575751.5864313,-388.0,8.044893654509433e-36,0.4422
1761575751.6062946,-389.0,8.300256375909844e-36,0.4422
1761575751.6264381,-390.0,8.505475889467103e-36,0.4422
1761575751.646427,-385.0,8.850495822810698e-36,0.4422
1761575751.6689703,-389.0,9.478171452647257e-36,0.4422
1761575751.686272,-386.0,1.0405283663418836e-35,0.4422
1761575751.706519,-385.0,1.150494471585673e-35,0.4422
1761575751.7264984,-389.0,1.256418586899434e-35,0.4422
1761575751.746486,-387.0,1.3391504092277568e-35,0.4422
1761575751.7662776,-384.0,1.3920742509756973e-35,0.4422
1761575751.7865608,-389.0,1.4255766522149046e-35,0.4422
1761575751.806423,-386.0,1.462790075808127e-35,0.4422
1761575751.8276334,-385.0,1.528249329080398e-35,0.4421
1761575751.8452513,-383.0,1.6349861433817757e-35,0.4421
1761575751.8652153,-379.0,1.7768157874799273e-35,0.4421
1761575751.8855462,-380.0,1.9302926984753848e-35,0.4421
1761575751.9054732,-376.0,2.0659894562399987e-35,0.4421
1761575751.9254704,-374.0,2.1637681966051133e-35,0.4421
1761575751.9455142,-378.0,2.224206646074176e-35,0.4421
1761575751.9655719,-375.0,2.2698241638428998e-35,0.4421
1761575751.985412,-374.0,2.334723693441195e-35,0.4421
1761575752.0055687,-378.0,2.4473289492097346e-35,0.4421
1761575752.0254688,-373.0,2.614904867538626e-35,0.4421
1761575752.045533,-374.0,2.8182233061452786e-35,0.4421
1761575752.0654142,-371.0,3.019938060085194e-35,0.4421
1761575752.085519,-372.0,3.1831957420007127e-35,0.4421
1761575752.1064355,-371.0,3.2913155613962483e-35,0.4421
1761575752.1256223,-369.0,3.3581465890081284e-35,0.4421
1761575752.1451092,-370.0,3.422926765423275e-35,0.4421
1761575752.1646266,-365.0,3.5312700969272446e-35,0.4421
1761575752.1850135,-363.0,3.7114031065484875e-35,0.4421
1761575752.2055345,-354.0,3.957949980336239e-35,0.4421
1761575752.2254226,-356.0,4.232429041091973e-35,0.4421
1761575752.2455628,-347.0,4.48138891696898e-35,0.4421
1761575752.2654178,-348.0,4.663797212013752e-35,0.4421
1761575752.285452,-345.0,4.773775456285064e-35,0.4421
1761575752.3054152,-347.0,4.846257818843523e-35,0.4421
1761575752.3254714,-341.0,4.941347439782793e-35,0.4421
1761575752.3454053,-339.0,5.114172103657644e-35,0.4421
1761575752.366458,-337.0,5.385236719557978e-35,0.4421
1761575752.3871083,-327.0,5.727073214750017e-35,0.4421
1761575752.4048688,-324.0,6.075445834674304e-35,0.4421
1761575752.424762,-327.0,6.360899228308212e-35,0.4421
1761575752.4447923,-320.0,6.54531977143157e-35,0.4421
1761575752.4650457,-314.0,6.644425565769695e-35,0.4421
1761575752.484459,-308.0,6.723227322394566e-35,0.4421
1761575752.5044086,-296.0,6.864954495790371e-35,0.4421
1761575752.524625,-293.0,7.128085077624796e-35,0.4422
1761575752.5444,-288.0,7.513481234341663e-35,0.4422
1761575752.5643902,-284.0,7.959819908430559e-35,0.4422
1761575752.5843904,-283.0,8.371752764521109e-35,0.4422
1761575752.6042337,-278.0,8.66814269400616e-35,0.4422
1761575752.6248505,-274.0,8.82615397833335e-35,0.4422
1761575752.6443594,-275.0,8.897462722954884e-35,0.4422
1761575752.664501,-266.0,8.985996638737563e-35,0.4422
1761575752.6844475,-261.0,9.196316244007242e-35,0.4422
1761575752.7044253,-260.0,9.578001494716581e-35,0.4422
1761575752.724574,-256.0,1.0095324176948005e-34,0.4422
1761575752.7443876,-253.0,1.0640113256448637e-34,0.4422
1761575752.7643743,-247.0,1.1084024180109177e-34,0.4422
1761575752.784441,-242.0,1.1345209333904239e-34,0.4422
1761575752.804557,-237.0,1.143496723236358e-34,0.4422
1761575752.8243792,-233.0,1.1458162252277994e-34,0.4422
1761575752.844665,-227.0,1.1563931791165909e-34,0.4422
1761575752.8646991,-226.0,1.1869376212840586e-34,0.4422
1761575752.8841953,-225.0,1.23948862797276e-34,0.4422
1761575752.9045124,-216.0,1.304629963901693e-34,0.4422
1761575752.9244373,-216.0,1.3656665576001249e-34,0.4422
1761575752.944461,-215.0,1.4069615135439317e-34,0.4422
1761575752.964502,-208.0,1.4222954767304506e-34,0.4422
1761575752.984364,-208.0,1.4188073037774694e-34,0.4422
1761575753.0044792,-203.0,1.4141112066217317e-34,0.4422
1761575753.024423,-199.0,1.4276429395717004e-34,0.4422
1761575753.0445206,-194.0,1.4704284417678371e-34,0.4421
1761575753.0643551,-193.0,1.5386010934760926e-34,0.4421
1761575753.0844142,-188.0,1.6143754260117085e-34,0.4421
1761575753.104415,-180.0,1.6744827971721637e-34,0.4421
1761575753.1242495,-174.0,1.702109654023648e-34,0.4421
1761575753.143411,-174.0,1.6962402486519233e-34,0.4421
1761575753.1633053,-167.0,1.6732576205472186e-34,0.4421
1761575753.1833465,-159.0,1.6594099320532686e-34,0.4421
1761575753.2033813,-154.0,1.6775054740196105e-34,0.4422
1761575753.2233405,-152.0,1.7345015968317114e-34,0.4422
1761575753.243457,-146.0,1.8166441062924428e-34,0.4422
1761575753.2634401,-146.0,1.8952673815670929e-34,0.4422
1761575753.2833695,-142.0,1.9409186827032754e-34,0.4422
1761575753.303384,-141.0,1.9388841873499374e-34,0.4422
1761575753.324134,-134.0,1.897966078273307e-34,0.4422
1761575753.3433537,-130.0,1.847376554226865e-34,0.4421
1761575753.3634007,-123.0,1.8225694790650264e-34,0.4421
1761575753.3835175,-126.0,1.8467646428348276e-34,0.4421
1761575753.4034066,-122.0,1.9176789574180648e-34,0.4421
1761575753.4233577,-119.0,2.0068759763371575e-34,0.4421
1761575753.4433508,-115.0,2.072958307116962e-34,0.4421
1761575753.4633493,-110.0,2.0825591598339286e-34,0.4421
1761575753.4833853,-110.0,2.0285255142478233e-34,0.4421
1761575753.5033455,-106.0,1.935438952830297e-34,0.4421
1761575753.5232794,-99.0,1.848660761185557e-34,0.4421
1761575753.5428972,-94.0,1.8115742506998314e-34,0.4421
1761575753.5631235,-94.0,1.8422913453312504e-34,0.4421
1761575753.5828798,-97.0,1.9221579470907468e-34,0.4421
1761575753.6031284,-97.0,2.0029824671608564e-34,0.4421
1761575753.6230798,-94.0,2.03044813858839e-34,0.4421
1761575753.64307,-85.0,1.9723978577170995e-34,0.4421
1761575753.6631114,-82.0,1.8373076725796796e-34,0.4421
1761575753.6830544,-84.0,1.672457550729372e-34,0.442
1761575753.7031717,-84.0,1.5413634185815423e-34,0.442
1761575753.7233026,-82.0,1.4910182597744233e-34,0.442
1761575753.7431033,-82.0,1.5256328461196268e-34,0.442
1761575753.7626913,-82.0,1.60127066333008e-34,0.442
1761575753.78368,-78.0,1.645672004872864e-34,0.442
1761575753.8020992,-76.0,1.59448285440402e-34,0.442
1761575753.8223083,-73.0,1.42578516488208e-34,0.442
1761575753.842548,-70.0,1.1744755627454985e-34,0.442
1761575753.863357,-64.0,9.174649757619268e-35,0.442
1761575753.8819635,-66.0,7.355421770385914e-35,0.442
1761575753.9011877,-70.0,6.705389701010346e-35,0.442
1761575753.921557,-73.0,7.002159972405116e-35,0.442
1761575753.9414184,-76.0,7.454259646094412e-35,0.442
1761575753.9617932,-79.0,7.07977115117275e-35,0.442
1761575753.981454,-78.0,5.212107675910218e-35,0.442
1761575754.0020158,-82.0,1.873167369677434e-35,0.442
1761575754.0218265,-79.0,-2.193378999073865e-35,0.4419
1761575754.0428493,-86.0,-5.869743186361978e-35,0.4419
1761575754.0630846,-85.0,-8.234275685213441e-35,0.4419
1761575754.0817752,-86.0,-9.066906679241715e-35,0.4419
1761575754.1017566,-90.0,-9.01699436805692e-35,0.4419
1761575754.1221356,-86.0,-9.321267086037454e-35,0.4419
1761575754.1413658,-89.0,-1.1190666073136432e-34,0.4419
1761575754.1614666,-95.0,-1.51688248377882e-34,0.4419
1761575754.1816523,-93.0,-2.080076974026721e-34,0.4419
1761575754.2020338,-95.0,-2.680899504397605e-34,0.4419
1761575754.2228515,-98.0,-3.1718268339859723e-34,0.4419
1761575754.2421453,-101.0,-3.4628305988866333e-34,0.4419
1761575754.2618725,-101.0,-3.573433634671811e-34,0.4419
1761575754.2821178,-105.0,-3.6301969983102667e-34,0.4419
1761575754.3024092,-103.0,-3.807232458808041e-34,0.4419
1761575754.3225093,-108.0,-4.237411085818756e-34,0.4419
1761575754.342279,-111.0,-4.939386609721172e-34,0.4419
1761575754.3624933,-111.0,-5.800246529993552e-34,0.4419
1761575754.3827538,-115.0,-6.626803737788653e-34,0.4419
1761575754.4023588,-115.0,-7.243001528857463e-34,0.4419
1761575754.4214897,-113.0,-7.584891349401815e-34,0.4419
1761575754.4413037,-115.0,-7.742613581328046e-34,0.442
1761575754.4613526,-115.0,-7.92348275542797e-34,0.442
1761575754.4813821,-114.0,-8.350379339043742e-34,0.442
1761575754.501263,-121.0,-9.144951320589764e-34,0.442
1761575754.521289,-123.0,-1.0256567599934985e-33,0.442
1761575754.5413246,-121.0,-1.1477843135276798e-33,0.442
1761575754.561109,-123.0,-1.254439947572792e-33,0.4421
1761575754.5804558,-129.0,-1.3271666232031695e-33,0.4421
1761575754.6016371,-127.0,-1.3658658572607925e-33,0.4421
1761575754.6214252,-134.0,-1.3901417343051888e-33,0.4421
1761575754.640812,-130.0,-1.430283062378419e-33,0.4421
1761575754.6621456,-133.0,-1.511963180350123e-33,0.4421
1761575754.6810331,-138.0,-1.6423477887364715e-33,0.4421
1761575754.701316,-140.0,-1.805077046247907e-33,0.4421
1761575754.7213635,-133.0,-1.96738725686418e-33,0.4422
1761575754.741004,-137.0,-2.096418555031594e-33,0.4422
1761575754.7608101,-139.0,-2.176680743627472e-33,0.4422
1761575754.7804525,-134.0,-2.219489925074274e-33,0.4422
1761575754.8022442,-142.0,-2.258824742561831e-33,0.4422
1761575754.8214366,-141.0,-2.3348790890131143e-33,0.4423
1761575754.841134,-141.0,-2.473201874470506e-33,0.4423
1761575754.8611374,-145.0,-2.670190431344464e-33,0.4423
1761575754.8816218,-148.0,-2.8930632207900913e-33,0.4423
1761575754.9010882,-152.0,-3.0953069771176164e-33,0.4423
1761575754.9209,-158.0,-3.2404520947773006e-33,0.4423
1761575754.9411044,-160.0,-3.3221285316083755e-33,0.4423
1761575754.960856,-160.0,-3.369512279598387e-33,0.4423
1761575754.985343,-168.0,-3.434285267064386e-33,0.4423
1761575755.0012329,-171.0,-3.564775209492244e-33,0.4423
1761575755.0204468,-175.0,-3.780124906625507e-33,0.4423
1761575755.0403838,-179.0,-4.058193008426467e-33,0.4423
1761575755.0594034,-181.0,-4.344530513538829e-33,0.4424
1761575755.0796678,-190.0,-4.5790947550800685e-33,0.4424
1761575755.1000445,-189.0,-4.727729751872156e-33,0.4424
1761575755.11995,-189.0,-4.8020388179403704e-33,0.4424
1761575755.1400378,-195.0,-4.8563273770784494e-33,0.4424
1761575755.1598768,-197.0,-4.9616914749424593e-33,0.4424
1761575755.1801076,-198.0,-5.1694530707597654e-33,0.4424
1761575755.1998725,-209.0,-5.4826147462121685e-33,0.4424
1761575755.22005,-209.0,-5.851010926880938e-33,0.4424
1761575755.2427943,-214.0,-6.19432145836157e-33,0.4424
1761575755.2600465,-211.0,-6.442618307952904e-33,0.4424
1761575755.2798061,-212.0,-6.574123815774628e-33,0.4424
1761575755.3001595,-215.0,-6.629971276672117e-33,0.4425
1761575755.3197725,-224.0,-6.696595331181132e-33,0.4425
1761575755.3401277,-220.0,-6.862914515592024e-33,0.4425
1761575755.3618517,-218.0,-7.173315726910081e-33,0.4425
1761575755.3791654,-220.0,-7.601086771441614e-33,0.4425
1761575755.399344,-224.0,-8.057754948179749e-33,0.4425
1761575755.4192412,-223.0,-8.435788533230435e-33,0.4426
1761575755.4393651,-227.0,-8.664258203643361e-33,0.4426
1761575755.4591472,-222.0,-8.74881643597172e-33,0.4426
1761575755.4796402,-227.0,-8.773748109933829e-33,0.4426
1761575755.5001607,-234.0,-8.862464418572147e-33,0.4426
1761575755.5194504,-236.0,-9.11460129867469e-33,0.4427
1761575755.539849,-237.0,-9.551502459805796e-33,0.4427
1761575755.5599911,-239.0,-1.0099548314894889e-32,0.4427
1761575755.5800416,-246.0,-1.0622698979572249e-32,0.4427
1761575755.5999,-251.0,-1.0990289765976372e-32,0.4427
1761575755.6200323,-252.0,-1.1146496499543912e-32,0.4427
1761575755.6400568,-259.0,-1.1144759208301448e-32,0.4427
1761575755.6599762,-266.0,-1.112657654515942e-32,0.4427
1761575755.6800437,-268.0,-1.1252197344955693e-32,0.4427
1761575755.7003994,-274.0,-1.1616736271436019e-32,0.4427
1761575755.7190385,-276.0,-1.2195203261229231e-32,0.4426
1761575755.7388854,-278.0,-1.2847510496069273e-32,0.4426
1761575755.7590253,-280.0,-1.3384800269099702e-32,0.4426
1761575755.7789764,-282.0,-1.366602414412255e-32,0.4426
1761575755.7990386,-289.0,-1.3675600198031258e-32,0.4426
1761575755.8189795,-296.0,-1.3539729917570675e-32,0.4427
1761575755.8389409,-301.0,-1.3468643891383289e-32,0.4427
1761575755.8590355,-305.0,-1.3650456072309314e-32,0.4427
1761575755.87907,-304.0,-1.4149661311905013e-32,0.4427
1761575755.8991818,-305.0,-1.4864376098367955e-32,0.4427
1761575755.9189749,-312.0,-1.55688858669831e-32,0.4426
1761575755.9385166,-315.0,-1.6024617969487663e-32,0.4426
1761575755.9585073,-315.0,-1.6105276089681937e-32,0.4427
1761575755.9784472,-320.0,-1.587076466530713e-32,0.4427
1761575755.9989655,-317.0,-1.5547331313301695e-32,0.4427
1761575756.019062,-323.0,-1.541822806075225e-32,0.4427
1761575756.0392013,-323.0,-1.5676894421306752e-32,0.4427
1761575756.0590255,-324.0,-1.6317972349399532e-32,0.4427
1761575756.078959,-328.0,-1.7126406811080085e-32,0.4427
1761575756.0991871,-325.0,-1.7776903282491904e-32,0.4427
1761575756.1185203,-328.0,-1.7998351084028166e-32,0.4427
1761575756.1382506,-329.0,-1.7720394000429783e-32,0.4427
1761575756.1582727,-331.0,-1.7123308952718448e-32,0.4427
1761575756.1783733,-333.0,-1.6558370174786397e-32,0.4428
1761575756.1984499,-331.0,-1.637232705228245e-32,0.4428
1761575756.2186987,-337.0,-1.672264916402576e-32,0.4428
1761575756.2388232,-335.0,-1.74808090298241e-32,0.4428
1761575756.2588515,-336.0,-1.8280654897208342e-32,0.4428
1761575756.28013,-340.0,-1.8695825003825515e-32,0.4428
1761575756.2984571,-340.0,-1.84607315931072e-32,0.4428
1761575756.3192258,-341.0,-1.7620921925473375e-32,0.4428
1761575756.3385625,-345.0,-1.6528505968985988e-32,0.4428
1761575756.3573043,-344.0,-1.5674858695855977e-32,0.4428
1761575756.3777163,-344.0,-1.5438494190776631e-32,0.4428
1761575756.397958,-345.0,-1.5876076889864112e-32,0.4428
1761575756.4180038,-341.0,-1.667011151959165e-32,0.4428
1761575756.4392986,-347.0,-1.7271332762830216e-32,0.4428
1761575756.4596698,-349.0,-1.7173184322601573e-32,0.4428
1761575756.4774911,-352.0,-1.6181691349943436e-32,0.4428
1761575756.4972854,-356.0,-1.4537481453306648e-32,0.4428
1761575756.5175984,-356.0,-1.2815606779342325e-32,0.4428
1761575756.537989,-354.0,-1.1641625493206989e-32,0.4428
1761575756.5579622,-355.0,-1.136224652283109e-32,0.4427
1761575756.5780048,-359.0,-1.1841988193565294e-32,0.4427
1761575756.5985856,-365.0,-1.2501813560168695e-32,0.4427
1761575756.618161,-363.0,-1.2595156738621348e-32,0.4427
1761575756.6382256,-364.0,-1.1590727452370564e-32,0.4427
1761575756.657473,-371.0,-9.46636667020553e-33,0.4427
1761575756.6772828,-369.0,-6.752504893715091e-33,0.4427
1761575756.697421,-372.0,-4.2858042043656164e-33,0.4427
1761575756.7177973,-374.0,-2.7844638960816684e-33,0.4427
1761575756.7380962,-369.0,-2.4584097122132478e-33,0.4427
1761575756.7581036,-372.0,-2.8630686262310343e-33,0.4427
1761575756.7774372,-375.0,-3.090094759198721e-33,0.4427
1761575756.8016398,-374.0,-2.216089280302793e-33,0.4426
1761575756.82055,-381.0,2.1142027166536945e-34,0.4426
1761575756.838613,-374.0,3.905631014444756e-33,0.4426
1761575756.8595521,-377.0,7.946050002422374e-33,0.4426
1761575756.8785343,-385.0,1.1226526599325507e-32,0.4426
1761575756.899553,-379.0,1.3030866400942162e-32,0.4426
1761575756.9187577,-380.0,1.343958715982922e-32,0.4426
1761575756.937852,-380.0,1.3341444380564898e-32,0.4426
1761575756.9598227,-382.0,1.40178516084841e-32,0.4426
1761575756.9771755,-382.0,1.6492374470234886e-32,0.4426
1761575757.000285,-384.0,2.0974380689346053e-32,0.4426
1761575757.0172315,-387.0,2.669751558478545e-32,0.4426
1761575757.0373473,-388.0,3.226422129512385e-32,0.4426
1761575757.0561423,-385.0,3.6346850801233467e-32,0.4426
1761575757.0768523,-387.0,3.839742006600951e-32,0.4425
1761575757.0986116,-388.0,3.899083487265797e-32,0.4425
1761575757.1187036,-393.0,3.959606729981749e-32,0.4425
1761575757.1362848,-395.0,4.185922688191603e-32,0.4425
1761575757.1560137,-398.0,4.6746312172690717e-32,0.4425
1761575757.1762602,-394.0,5.399029729009592e-32,0.4425
1761575757.1963484,-398.0,6.215498068311399e-32,0.4425
1761575757.2165186,-397.0,6.932182672898834e-32,0.4424
1761575757.2371705,-398.0,7.40766675336959e-32,0.4424
1761575757.2568235,-400.0,7.629345212789373e-32,0.4424
1761575757.2774334,-396.0,7.728705351761743e-32,0.4424
1761575757.296121,-397.0,7.921336100673972e-32,0.4424
1761575757.3162541,-396.0,8.398539902972077e-32,0.4424
1761575757.336726,-393.0,9.224777655907898e-32,0.4424
1761575757.3570654,-395.0,1.029560094650786e-31,0.4424
1761575757.3769886,-390.0,1.1382249549991174e-31,0.4424
1761575757.3971198,-395.0,1.22449181213665e-31,0.4424
1761575757.4169688,-395.0,1.275918950214964e-31,0.4424
1761575757.4370637,-392.0,1.2989575489474788e-31,0.4424
1761575757.456954,-397.0,1.3167828465298068e-31,0.4424
1761575757.4769688,-392.0,1.3581348538679175e-31,0.4424
1761575757.4983122,-394.0,1.4424932449424626e-31,0.4424
1761575757.5169873,-395.0,1.5691947323087125e-31,0.4424
1761575757.53628,-392.0,1.7165059481204906e-31,0.4424
1761575757.5564258,-394.0,1.8517845688759156e-31,0.4423
1761575757.578417,-395.0,1.9480669575822949e-31,0.4423
1761575757.596655,-392.0,1.9987194340003638e-31,0.4423
1761575757.6164339,-390.0,2.022275957764828e-31,0.4423
1761575757.63556,-388.0,2.0542702673904693e-31,0.4423
1761575757.6559768,-390.0,2.129546540664406e-31,0.4423
1761575757.6758866,-386.0,2.263794910457496e-31,0.4423
1761575757.6959636,-385.0,2.444031156817159e-31,0.4423
1761575757.715866,-385.0,2.6336327894796932e-31,0.4423
1761575757.7358582,-382.0,2.7902030113318786e-31,0.4423
1761575757.7558746,-381.0,2.887635961497844e-31,0.4423
1761575757.7761953,-390.0,2.9309794973463713e-31,0.4423
1761575757.7958639,-387.0,2.9557697406316445e-31,0.4423
1761575757.815874,-386.0,3.0111921873570604e-31,0.4423
1761575757.8363993,-387.0,3.134939180568706e-31,0.4423
1761575757.8561351,-386.0,3.3325314453799824e-31,0.4422
1761575757.8761258,-388.0,3.572328816697511e-31,0.4422
1761575757.8961954,-383.0,3.799875311919958e-31,0.4422
1761575757.916172,-386.0,3.965229417500715e-31,0.4422
1761575757.936452,-386.0,4.049654492791999e-31,0.4422
1761575757.9561293,-379.0,4.077509885121957e-31,0.4422
1761575757.9761224,-381.0,4.10610510743212e-31,0.4422
1761575757.9961882,-383.0,4.197472917077642e-31,0.4422
1761575758.0161335,-373.0,4.3858343801420485e-31,0.4422
1761575758.036152,-377.0,4.657688739807542e-31,0.4422
1761575758.0561273,-376.0,4.955865931014983e-31,0.4422
1761575758.0761116,-380.0,5.20692979472459e-31,0.4422
1761575758.096139,-375.0,5.358930308352603e-31,0.4422
1761575758.1161299,-372.0,5.410198938034446e-31,0.4422
1761575758.1361115,-375.0,5.4133857333068125e-31,0.4422
1761575758.1561751,-369.0,5.451022553449587e-31,0.4422
1761575758.176107,-370.0,5.593719013547979e-31,0.4421
1761575758.196096,-362.0,5.861991260190512e-31,0.4421
1761575758.2161114,-364.0,6.2121414858106615e-31,0.4421
1761575758.2361808,-365.0,6.555188267322752e-31,0.4421
1761575758.2561584,-358.0,6.800942574668986e-31,0.4422
1761575758.276602,-353.0,6.9055228530775226e-31,0.4422
1761575758.2951334,-349.0,6.897401729785191e-31,0.4422
1761575758.3150988,-346.0,6.866844263382975e-31,0.4422
1761575758.3351116,-336.0,6.921993052178486e-31,0.4422
1761575758.3551476,-335.0,7.132699615560945e-31,0.4422
1761575758.375118,-332.0,7.491022709465665e-31,0.4422
1761575758.395104,-331.0,7.910339436578506e-31,0.4422
1761575758.415107,-332.0,8.265992246303215e-31,0.4422
1761575758.4351046,-323.0,8.458618094542562e-31,0.4422
1761575758.454953,-323.0,8.468115671502048e-31,0.4422
1761575758.4751117,-316.0,8.369122630543548e-31,0.4422
1761575758.4955344,-314.0,8.297377353911533e-31,0.4422
1761575758.5151079,-310.0,8.381634234203731e-31,0.4422
1761575758.535102,-305.0,8.674943883480594e-31,0.4422
1761575758.5551496,-296.0,9.12158863455631e-31,0.4422
1761575758.5751302,-291.0,9.57941247494162e-31,0.4422
1761575758.5951111,-285.0,9.88924868328128e-31,0.4422
1761575758.6150875,-276.0,9.957723684713537e-31,0.4422
1761575758.6350918,-276.0,9.810509573236193e-31,0.4422
1761575758.6551137,-264.0,9.586003966967719e-31,0.4423
1761575758.6748421,-259.0,9.469009827583698e-31,0.4423
1761575758.6949286,-255.0,9.59567916309124e-31,0.4423
1761575758.7141764,-252.0,9.978151474519423e-31,0.4423
1761575758.734034,-249.0,1.0489967040406172e-30,0.4423
1761575758.7548828,-242.0,1.092380380336584e-30,0.4423
1761575758.7752159,-238.0,1.109558553153705e-30,0.4423
1761575758.7947004,-231.0,1.0942859281799142e-30,0.4423
1761575758.8146257,-226.0,1.0565081679830866e-30,0.4423
1761575758.8341665,-223.0,1.0180856151660057e-30,0.4423
1761575758.8544705,-219.0,1.0019486216092148e-30,0.4423
1761575758.874255,-219.0,1.0200022112709548e-30,0.4423
1761575758.8933926,-212.0,1.0660939247198192e-30,0.4423
1761575758.9132998,-205.0,1.1180803365515972e-30,0.4422
1761575758.9339364,-202.0,1.14847295669641e-30,0.4422
1761575758.955359,-194.0,1.1385771837268994e-30,0.4422
1761575758.9738297,-193.0,1.0888718103161767e-30,0.4422
1761575758.9941335,-183.0,1.0199072353543294e-30,0.4422
1761575759.0140944,-181.0,9.62651503326982e-31,0.4422
1761575759.0335026,-181.0,9.427225959717957e-31,0.4422
1761575759.0536315,-176.0,9.66455249137452e-31,0.4422
1761575759.0734253,-168.0,1.0162803799102842e-30,0.4422
1761575759.093523,-165.0,1.0584435239479335e-30,0.4422
1761575759.113546,-156.0,1.0597581904675462e-30,0.4422
1761575759.1341157,-152.0,1.0051083427830947e-30,0.4422
1761575759.1550348,-149.0,9.06498585362652e-31,0.4422
1761575759.1736372,-141.0,7.983399576969365e-31,0.4422
1761575759.1944778,-136.0,7.205994367226579e-31,0.4422
1761575759.2144728,-131.0,6.979560665322884e-31,0.4422
1761575759.234085,-129.0,7.257267949491606e-31,0.4422
1761575759.254314,-123.0,7.704221380999891e-31,0.4422
1761575759.2742834,-116.0,7.855538850290448e-31,0.4422
1761575759.2936072,-116.0,7.3529741344721336e-31,0.4422
1761575759.3135166,-112.0,6.139984253457763e-31,0.4421
1761575759.3337598,-109.0,4.509584091630055e-31,0.4421
1761575759.3541443,-101.0,2.9705036430494657e-31,0.4421
1761575759.3740652,-100.0,1.9910033287953306e-31,0.4421
1761575759.3941357,-101.0,1.74804601447362e-31,0.4421
1761575759.4131746,-96.0,2.0146692892488975e-31,0.4421
1761575759.4355423,-95.0,2.253684198341611e-31,0.4421
1761575759.4528415,-90.0,1.881078586537432e-31,0.4421
1761575759.4729457,-89.0,5.705672770473542e-32,0.4421
1761575759.4931936,-86.0,-1.5590227633858914e-31,0.442
1761575759.5131698,-83.0,-3.9798202235937416e-31,0.442
1761575759.5328696,-75.0,-6.009302990915175e-31,0.442
1761575759.552816,-76.0,-7.162241945923509e-31,0.442
1761575759.5727944,-74.0,-7.42036835529657e-31,0.442
1761575759.5927937,-73.0,-7.2722027374656085e-31,0.442
1761575759.6128,-73.0,-7.487703166670414e-31,0.442
1761575759.6331983,-76.0,-8.73026183647275e-31,0.442
1761575759.6529603,-73.0,-1.1200867398501258e-30,0.442
1761575759.6726246,-76.0,-1.4504373451829176e-30,0.442
1761575759.692774,-71.0,-1.782230714309282e-30,0.4419
1761575759.7127304,-71.0,-2.0319992810054255e-30,0.4419
1761575759.7329078,-77.0,-2.158752387030252e-30,0.4419
1761575759.7527862,-77.0,-2.1883792375138327e-30,0.4419
1761575759.773087,-76.0,-2.204247436369168e-30,0.4419
1761575759.7927632,-82.0,-2.30686462739483e-30,0.4419
1761575759.8129818,-78.0,-2.5619871094575954e-30,0.4418
1761575759.8327868,-85.0,-2.9638624811681258e-30,0.4418
1761575759.8530662,-85.0,-3.433955147553783e-30,0.4418
1761575759.8728378,-85.0,-3.8580260069434384e-30,0.4418
1761575759.8937109,-88.0,-4.144361136208041e-30,0.4418
1761575759.9128485,-88.0,-4.273710620700224e-30,0.4418
1761575759.933082,-89.0,-4.3140540459589294e-30,0.4418
1761575759.9536173,-94.0,-4.390219286843694e-30,0.4418
1761575759.975255,-97.0,-4.621604041174466e-30,0.4418
1761575759.9922569,-97.0,-5.058911909055712e-30,0.4418
1761575760.0123522,-104.0,-5.653245965776519e-30,0.4417
1761575760.0323842,-102.0,-6.2758776372711396e-30,0.4417
1761575760.052414,-107.0,-6.781382928457144e-30,0.4417
1761575760.0725849,-104.0,-7.083488565284626e-30,0.4417
1761575760.0932188,-111.0,-7.204367291617063e-30,0.4417
1761575760.1146863,-111.0,-7.269717265716941e-30,0.4417
1761575760.1351209,-115.0,-7.448878662032705e-30,0.4417
1761575760.1521745,-114.0,-7.868213170135722e-30,0.4417
1761575760.1713457,-115.0,-8.541828236699641e-30,0.4418
1761575760.191609,-119.0,-9.357287323181538e-30,0.4418
1761575760.2116535,-120.0,-1.0127236926698875e-29,0.4418
1761575760.2313573,-117.0,-1.0683754625312885e-29,0.4418
1761575760.2513826,-114.0,-1.0968240905029062e-29,0.4418
1761575760.2713454,-122.0,-1.1069126559277781e-29,0.4418
1761575760.2917645,-127.0,-1.1184279537353988e-29,0.4418
1761575760.3121495,-131.0,-1.1523324349356089e-29,0.4419
1761575760.3322313,-131.0,-1.21977418788543e-29,0.4419
1761575760.3547418,-132.0,-1.3156009884540787e-29,0.4419
1761575760.3717713,-135.0,-1.4200786883210667e-29,0.4419
1761575760.3915827,-137.0,-1.5084107254613788e-29,0.4419
1761575760.4116695,-139.0,-1.5635129437214988e-29,0.4419
1761575760.432033,-137.0,-1.5855006022239233e-29,0.4419
1761575760.4521892,-142.0,-1.5926784046726562e-29,0.4419
1761575760.4720824,-138.0,-1.6129897838267904e-29,0.4419
1761575760.4941804,-143.0,-1.669853433921228e-29,0.442
1761575760.511484,-145.0,-1.7695182995618013e-29,0.442
1761575760.5311344,-144.0,-1.89670375110805e-29,0.442
1761575760.55136,-148.0,-2.0213333319854103e-29,0.442
1761575760.5712392,-152.0,-2.1134874602837556e-29,0.4421
1761575760.5914104,-157.0,-2.1591867729856995e-29,0.4421
1761575760.6113403,-166.0,-2.1687273086967337e-29,0.4421
1761575760.6314719,-167.0,-2.172713085155592e-29,0.4421
1761575760.6514258,-170.0,-2.2071274012789695e-29,0.4421
1761575760.6710854,-176.0,-2.2946508420335916e-29,0.4421
1761575760.6913307,-182.0,-2.4318551590719892e-29,0.4421
1761575760.7112715,-189.0,-2.589389640093265e-29,0.4421
1761575760.7333813,-192.0,-2.725854936468959e-29,0.4421
1761575760.7534652,-198.0,-2.8088788756719457e-29,0.4421
1761575760.771097,-203.0,-2.832712562599226e-29,0.4421
1761575760.7911177,-201.0,-2.822849581718064e-29,0.4421
1761575760.8104699,-205.0,-2.824439456535067e-29,0.4421
1761575760.8306968,-208.0,-2.8796208545390766e-29,0.4422
1761575760.851,-207.0,-3.0050589602071196e-29,0.4422
1761575760.8701801,-208.0,-3.181551230467298e-29,0.4422
1761575760.8903239,-208.0,-3.3619206219878116e-29,0.4422
1761575760.910347,-210.0,-3.494145043822675e-29,0.4423
1761575760.9303718,-212.0,-3.548447141593539e-29,0.4423
1761575760.9503393,-215.0,-3.5342929190835373e-29,0.4423
1761575760.9703047,-218.0,-3.49771713305689e-29,0.4424
1761575760.9902074,-219.0,-3.49919021331918e-29,0.4424
1761575761.0106568,-221.0,-3.582520490905135e-29,0.4424
1761575761.0326242,-227.0,-3.7506527111999086e-29,0.4424
1761575761.0500815,-228.0,-3.961549021492275e-29,0.4424
1761575761.0698137,-231.0,-4.1475446821935134e-29,0.4424
1761575761.0901475,-236.0,-4.249392619126646e-29,0.4425
1761575761.1101434,-240.0,-4.247928831705284e-29,0.4425
1761575761.130728,-241.0,-4.1765103430226075e-29,0.4425
1761575761.1506941,-251.0,-4.106498546721666e-29,0.4425
1761575761.1708088,-257.0,-4.111811264903841e-29,0.4425
1761575761.1918209,-261.0,-4.229973201548811e-29,0.4425
1761575761.2109005,-263.0,-4.439997493216425e-29,0.4425
1761575761.2299929,-270.0,-4.6697842860475397e-29,0.4425
1761575761.2499828,-280.0,-4.8309207388286594e-29,0.4425
1761575761.2699175,-285.0,-4.864185417809321e-29,0.4425
1761575761.2899957,-289.0,-4.772403703855845e-29,0.4425
1761575761.3100767,-288.0,-4.6225600893087614e-29,0.4425
1761575761.3302624,-298.0,-4.5141944447566125e-29,0.4425
1761575761.350543,-302.0,-4.5287126058982677e-29,0.4425
1761575761.3707323,-302.0,-4.685191886037083e-29,0.4425
1761575761.3905718,-307.0,-4.926381721740929e-29,0.4426
1761575761.4107294,-307.0,-5.144105613284036e-29,0.4426
1761575761.4307806,-315.0,-5.233046064353136e-29,0.4426
1761575761.4507287,-309.0,-5.146260472726286e-29,0.4426
1761575761.4700434,-315.0,-4.9232553445527156e-29,0.4426
1761575761.4897685,-317.0,-4.674158990465251e-29,0.4426
1761575761.509839,-316.0,-4.5256926532191836e-29,0.4427
1761575761.5295613,-317.0,-4.5551292643023343e-29,0.4427
1761575761.5497758,-318.0,-4.7463414056329837e-29,0.4427
1761575761.5697012,-324.0,-4.992445309171898e-29,0.4427
1761575761.5899131,-325.0,-5.146451740776419e-29,0.4428
1761575761.6105952,-331.0,-5.096104598726969e-29,0.4428
1761575761.6292224,-337.0,-4.824900603263376e-29,0.4428
1761575761.6488543,-335.0,-4.4262843420628974e-29,0.4428
1761575761.6694262,-336.0,-4.060718803257142e-29,0.4428
1761575761.6892571,-340.0,-3.8748332978426043e-29,0.4428
1761575761.7092073,-339.0,-3.9230000499373174e-29,0.4428
1761575761.7295165,-343.0,-4.1328338568931837e-29,0.4428
1761575761.7497416,-345.0,-4.3354419793272367e-29,0.4428
1761575761.769692,-348.0,-4.348362110031795e-29,0.4428
1761575761.78976,-345.0,-4.0706232413655954e-29,0.4429
1761575761.8104057,-348.0,-3.5405393837161044e-29,0.4429
1761575761.8329632,-352.0,-2.9235324737601766e-29,0.4429
1761575761.849073,-347.0,-2.4322099371025717e-29,0.4429
1761575761.8687994,-347.0,-2.216771419733406e-29,0.4429
1761575761.8888113,-352.0,-2.281742472924955e-29,0.4429
1761575761.90934,-355.0,-2.474507285103027e-29,0.4429
1761575761.9300303,-359.0,-2.55598393761083e-29,0.4429
1761575761.949739,-358.0,-2.3211016506126334e-29,0.4429
1761575761.970012,-360.0,-1.7085509668049907e-29,0.4429
1761575761.9900827,-361.0,-8.41312497994055e-30,0.4429
1761575762.0100958,-364.0,2.7537781381092877e-31,0.4429
1761575762.0304585,-365.0,6.408408814853843e-30,0.4429
1761575762.0518248,-365.0,8.730533790561038e-30,0.4429
1761575762.0692997,-365.0,8.046839134072291e-30,0.4429
1761575762.0891984,-367.0,6.925746783144562e-30,0.4429
1761575762.1091936,-371.0,8.454747566318764e-30,0.4429
1761575762.1283486,-372.0,1.464835673665833e-29,0.4429
1761575762.1490006,-370.0,2.532665241678458e-29,0.4429
1761575762.16875,-363.0,3.808352621050843e-29,0.4429
1761575762.1887035,-370.0,4.942633364131665e-29,0.4429
1761575762.208748,-376.0,5.655610589204267e-29,0.4429
1761575762.2294016,-380.0,5.888825339496365e-29,0.4429
1761575762.2488258,-380.0,5.849685923452542e-29,0.4429
1761575762.2685437,-382.0,5.918432659843449e-29,0.4429
1761575762.2888153,-383.0,6.458486280974355e-29,0.4429
1761575762.3087714,-383.0,7.624376607661443e-29,0.4429
1761575762.328742,-392.0,9.268325801221448e-29,0.4429
1761575762.3487282,-389.0,1.1000579543668608e-28,0.4428
1761575762.3685882,-387.0,1.238083093432504e-28,0.4428
1761575762.3887618,-392.0,1.3147652676009666e-28,0.4428
1761575762.408678,-394.0,1.3367294702024042e-28,0.4428
1761575762.428661,-395.0,1.3418650601494369e-28,0.4428
1761575762.448675,-394.0,1.3812588785411855e-28,0.4428
1761575762.468722,-392.0,1.4931017700600115e-28,0.4428
1761575762.4890401,-392.0,1.681841359421754e-28,0.4428
1761575762.5087626,-395.0,1.913876656468876e-28,0.4428
1761575762.5288715,-394.0,2.1330435173969224e-28,0.4428
1761575762.5487072,-398.0,2.2889045530035213e-28,0.4428
1761575762.5686631,-397.0,2.3636964893807836e-28,0.4428
1761575762.588779,-396.0,2.383657490235464e-28,0.4428
1761575762.6086729,-398.0,2.4078415583351043e-28,0.4428
1761575762.6287174,-396.0,2.498980642237123e-28,0.4427
1761575762.6486523,-392.0,2.690683366678458e-28,0.4427
1761575762.6687248,-394.0,2.968034552791731e-28,0.4427
1761575762.688714,-397.0,3.272608502486295e-28,0.4427
1761575762.7087073,-395.0,3.5306978508891167e-28,0.4427
1761575762.728714,-392.0,3.6912582893586246e-28,0.4427
1761575762.7488692,-394.0,3.754153452199372e-28,0.4427
1761575762.7677078,-394.0,3.7732477035525724e-28,0.4427
1761575762.7880156,-393.0,3.8312326103806457e-28,0.4427
1761575762.8073723,-385.0,3.9977797061215683e-28,0.4427
1761575762.8270857,-387.0,4.292079578788231e-28,0.4427
1761575762.8469944,-387.0,4.669758741159741e-28,0.4427
1761575762.867144,-390.0,5.042502874742038e-28,0.4427
1761575762.887445,-390.0,5.321977414555746e-28,0.4427
1761575762.907489,-392.0,5.46634225362209e-28,0.4426
1761575762.9276545,-391.0,5.505012561358924e-28,0.4426
1761575762.9476514,-390.0,5.527342623389752e-28,0.4426
1761575762.9676514,-388.0,5.639069272153154e-28,0.4426
1761575762.9876542,-392.0,5.907558888948851e-28,0.4426
1761575763.0076525,-390.0,6.324037143853104e-28,0.4426
1761575763.027725,-389.0,6.803692881917401e-28,0.4425
1761575763.0477114,-388.0,7.2258276132186795e-28,0.4425
1761575763.0676968,-388.0,7.49525823376091e-28,0.4425
1761575763.0877407,-389.0,7.593882978941669e-28,0.4425
1761575763.107696,-385.0,7.594675399389067e-28,0.4425
1761575763.1277778,-382.0,7.628530423260881e-28,0.4425
1761575763.1476955,-385.0,7.818655033948649e-28,0.4425
1761575763.167697,-381.0,8.215150536486527e-28,0.4425
1761575763.1877425,-385.0,8.764247376603755e-28,0.4425
1761575763.2074666,-383.0,9.330425193838835e-28,0.4424
1761575763.227835,-382.0,9.762869263573702e-28,0.4424
1761575763.2476943,-381.0,9.973865614624105e-28,0.4424
1761575763.26769,-377.0,9.988552366312243e-28,0.4424
1761575763.286808,-377.0,9.938151867831992e-28,0.4424
1761575763.3070228,-373.0,9.996938387027778e-28,0.4424
1761575763.327339,-378.0,1.0292838414124338e-27,0.4424
1761575763.3476763,-376.0,1.0837193902430315e-27,0.4424
1761575763.3676634,-372.0,1.1511791231790188e-27,0.4423
1761575763.3877156,-369.0,1.2123333218032326e-27,0.4423
1761575763.4067316,-362.0,1.250061485285752e-27,0.4423
1761575763.4291077,-362.0,1.258573309342421e-27,0.4423
1761575763.4472525,-357.0,1.2470959419149472e-27,0.4423
1761575763.4658842,-349.0,1.235868874629568e-27,0.4423
1761575763.4861047,-343.0,1.2461060628002217e-27,0.4423
1761575763.5088878,-347.0,1.288857950920683e-27,0.4423
1761575763.5259078,-348.0,1.3585730185947643e-27,0.4423
1761575763.5458815,-341.0,1.4350224704061596e-27,0.4423
1761575763.5665214,-338.0,1.4930623132713163e-27,0.4423
1761575763.587608,-334.0,1.5155503240912022e-27,0.4423
1761575763.6065474,-327.0,1.5028016955458056e-27,0.4423
1761575763.6280077,-326.0,1.4734040059831018e-27,0.4423
1761575763.6463792,-319.0,1.4554593804221388e-27,0.4423
1761575763.6671574,-317.0,1.472306866382231e-27,0.4423
1761575763.6890435,-315.0,1.5299196123120115e-27,0.4423
1761575763.710604,-305.0,1.612708293860393e-27,0.4423
1761575763.7257586,-298.0,1.690428578162262e-27,0.4423
1761575763.7457561,-289.0,1.7332021223161403e-27,0.4423
1761575763.76615,-281.0,1.727215955845537e-27,0.4423
1761575763.7856972,-277.0,1.682876074627804e-27,0.4423
1761575763.8071072,-269.0,1.6306853336472e-27,0.4423
1761575763.828248,-268.0,1.606302585921376e-27,0.4423
1761575763.8458564,-264.0,1.6320190640311174e-27,0.4423
1761575763.865806,-255.0,1.7041935996409002e-27,0.4423
1761575763.8857267,-250.0,1.7936053482090775e-27,0.4423
1761575763.9062858,-245.0,1.8592873240108192e-27,0.4423
1761575763.925914,-241.0,1.8693414873057644e-27,0.4423
1761575763.9457796,-234.0,1.8181850515195178e-27,0.4423
1761575763.9660354,-231.0,1.7309447841981633e-27,0.4423
1761575763.9860957,-226.0,1.6519424328052742e-27,0.4423
1761575764.0063064,-223.0,1.6224100620084927e-27,0.4423
1761575764.0269992,-220.0,1.65853954070705e-27,0.4422
1761575764.0460575,-211.0,1.7414369909403097e-27,0.4422
1761575764.065856,-204.0,1.824957104677648e-27,0.4422
1761575764.0859308,-197.0,1.8583283687023428e-27,0.4422
1761575764.1064153,-194.0,1.8125180778245757e-27,0.4422
1761575764.1259124,-185.0,1.6966794707514196e-27,0.4422
1761575764.1456637,-187.0,1.555453483919488e-27,0.4422
1761575764.1663218,-186.0,1.4474394458765756e-27,0.4422
1761575764.185038,-177.0,1.41507627816358e-27,0.4422
1761575764.2051837,-172.0,1.4612865924052919e-27,0.4422
1761575764.2259712,-164.0,1.5455631504987512e-27,0.4421
1761575764.2451835,-164.0,1.6026781140041587e-27,0.4421
1761575764.2653668,-153.0,1.5754752908749214e-27,0.4421
1761575764.2852135,-150.0,1.4453033826073496e-27,0.4421
1761575764.305982,-150.0,1.2439421280876352e-27,0.4421
1761575764.3259954,-140.0,1.0396806886517641e-27,0.4421
1761575764.3458402,-135.0,9.033845698536406e-28,0.4421
1761575764.3657758,-129.0,8.71252049613798e-28,0.4421
1761575764.3858263,-125.0,9.236638522351199e-28,0.4421
1761575764.4056673,-120.0,9.92179069281049e-28,0.442
1761575764.425827,-113.0,9.926154566590606e-28,0.442
1761575764.4462023,-112.0,8.683106902828316e-28,0.442
1761575764.4659612,-111.0,6.213910637618523e-28,0.442
1761575764.4857562,-104.0,3.1490929507929504e-28,0.442
1761575764.505821,-106.0,4.3053852146205515e-29,0.442
1761575764.5255523,-95.0,-1.1673187170522679e-28,0.442
1761575764.5456374,-95.0,-1.4557141006218935e-28,0.442
1761575764.5656855,-93.0,-9.657062735744208e-29,0.4419
1761575764.585637,-89.0,-7.114029921653315e-29,0.4419
1761575764.6055923,-84.0,-1.6855347039525256e-28,0.4419
1761575764.6255674,-86.0,-4.337364181816972e-28,0.4419
1761575764.6455321,-85.0,-8.306538174103217e-28,0.4419
1761575764.6655724,-79.0,-1.2567533858851946e-27,0.4419
1761575764.684629,-78.0,-1.5932236793118055e-27,0.4419
1761575764.704727,-77.0,-1.766680877072396e-27,0.4418
1761575764.7246385,-69.0,-1.790493283082857e-27,0.4418
1761575764.7445378,-68.0,-1.7628433080176948e-27,0.4418
1761575764.7646894,-71.0,-1.820071484282322e-27,0.4418
1761575764.7845652,-68.0,-2.067283652900384e-27,0.4418
1761575764.8047662,-76.0,-2.5214174229207455e-27,0.4418
1761575764.8245616,-74.0,-3.097422432863913e-27,0.4418
1761575764.8448956,-75.0,-3.647285130738236e-27,0.4418
1761575764.8645728,-73.0,-4.034392197047853e-27,0.4417
1761575764.8848548,-76.0,-4.206142069956611e-27,0.4417
1761575764.9048238,-77.0,-4.2265184590371416e-27,0.4417
1761575764.9250727,-83.0,-4.2492112978627106e-27,0.4417
1761575764.9449677,-84.0,-4.442028866436763e-27,0.4416
1761575764.9648995,-89.0,-4.899572618312831e-27,0.4416
1761575764.9848135,-93.0,-5.589426056136938e-27,0.4416
1761575765.0047953,-92.0,-6.362063650639332e-27,0.4416
1761575765.0246944,-94.0,-7.02289873200302e-27,0.4416
1761575765.0451767,-96.0,-7.432123382045576e-27,0.4416
1761575765.0648496,-95.0,-7.58142371534562e-27,0.4415
1761575765.0847979,-96.0,-7.605915822460216e-27,0.4415
1761575765.1048625,-94.0,-7.72134035274296e-27,0.4415
1761575765.1251118,-104.0,-8.115287432065904e-27,0.4415
1761575765.1449025,-107.0,-8.847030835674337e-27,0.4416
1761575765.1650915,-111.0,-9.809125927900584e-27,0.4416
1761575765.1851125,-114.0,-1.0774471357677184e-26,0.4416
1761575765.2067833,-115.0,-1.1508945246660834e-26,0.4415
1761575765.2250538,-120.0,-1.1894119579181092e-26,0.4415
1761575765.2446287,-118.0,-1.1996107120328808e-26,0.4415
1761575765.2644875,-120.0,-1.2041287421842972e-26,0.4415
1761575765.2843647,-122.0,-1.2306389882914485e-26,0.4415
1761575765.3052392,-122.0,-1.2975862167819028e-26,0.4415
1761575765.3247283,-125.0,-1.4039652535380795e-26,0.4416
1761575765.3433886,-129.0,-1.5287433024807085e-26,0.4416
1761575765.3630574,-124.0,-1.640776440569003e-26,0.4416
1761575765.3838236,-126.0,-1.7146016352306765e-26,0.4416
1761575765.403525,-126.0,-1.7441353029278624e-26,0.4416
1761575765.423507,-125.0,-1.7469588082397894e-26,0.4417
1761575765.4435813,-127.0,-1.7564053671901374e-26,0.4417
1761575765.463806,-132.0,-1.804917748433926e-26,0.4417
1761575765.484747,-136.0,-1.9069310613453624e-26,0.4417
1761575765.5034058,-141.0,-2.0502512677934728e-26,0.4418
1761575765.523647,-141.0,-2.200941303595623e-26,0.4418
1761575765.5435445,-136.0,-2.319909694141622e-26,0.4418
1761575765.5639045,-140.0,-2.3831433239477777e-26,0.4418
1761575765.5843518,-148.0,-2.3951554889936363e-26,0.4418
1761575765.6037188,-152.0,-2.388197798855954e-26,0.4418
1761575765.6241581,-158.0,-2.4068466541311773e-26,0.4418
1761575765.6436503,-157.0,-2.4852402338644942e-26,0.4419
1761575765.6639647,-165.0,-2.6285151490987824e-26,0.4419
1761575765.6835647,-165.0,-2.8084358034683066e-26,0.4419
1761575765.704178,-172.0,-2.9763133779719963e-26,0.4419
1761575765.723095,-176.0,-3.0873989441864296e-26,0.4419
1761575765.7436996,-181.0,-3.1245772502318345e-26,0.4419
1761575765.7635915,-183.0,-3.1088697337673615e-26,0.4419
1761575765.7837493,-195.0,-3.0904844600242995e-26,0.4419
1761575765.8037798,-196.0,-3.1240215764334374e-26,0.4419
1761575765.8237607,-200.0,-3.239972639724718e-26,0.442
1761575765.843772,-202.0,-3.4272825190327535e-26,0.442
1761575765.863772,-206.0,-3.6367594300865755e-26,0.442
1761575765.883768,-211.0,-3.80471288897135e-26,0.442
1761575765.9036021,-213.0,-3.885534817951754e-26,0.442
1761575765.9238093,-217.0,-3.8766056075086827e-26,0.442
1761575765.94383,-214.0,-3.822006811311638e-26,0.4421
1761575765.9637663,-214.0,-3.791899775242886e-26,0.4421
1761575765.983766,-217.0,-3.847039917618493e-26,0.4421
1761575766.002806,-216.0,-4.006238225352496e-26,0.4422
1761575766.0227604,-217.0,-4.2340319134840055e-26,0.4422
1761575766.0428095,-216.0,-4.456175368164044e-26,0.4422
1761575766.0623236,-219.0,-4.5963714640092714e-26,0.4423
1761575766.082518,-222.0,-4.6161344615340525e-26,0.4423
1761575766.1024992,-228.0,-4.5370159081942724e-26,0.4423
1761575766.1225889,-231.0,-4.4325285276333944e-26,0.4424
1761575766.1423755,-241.0,-4.392314699111773e-26,0.4424
1761575766.1625051,-246.0,-4.475831081383591e-26,0.4424
1761575766.1823306,-249.0,-4.679295280331817e-26,0.4424
1761575766.202538,-256.0,-4.934001053808795e-26,0.4424
1761575766.222253,-258.0,-5.1386409838861586e-26,0.4424
1761575766.2426348,-266.0,-5.210556964951469e-26,0.4424
1761575766.2618022,-275.0,-5.13005249998914e-26,0.4424
1761575766.2818453,-280.0,-4.954100800223795e-26,0.4424
1761575766.302094,-283.0,-4.790538477965376e-26,0.4424
1761575766.322347,-289.0,-4.744095111981403e-26,0.4424
1761575766.3425593,-296.0,-4.861037530717841e-26,0.4425
1761575766.3625503,-296.0,-5.101429436338022e-26,0.4425
1761575766.3824484,-299.0,-5.355118166436801e-26,0.4425
1761575766.4024816,-301.0,-5.49548921712436e-26,0.4425
1761575766.422545,-306.0,-5.444858147171631e-26,0.4425
1761575766.4425497,-309.0,-5.217800549472983e-26,0.4425
1761575766.4625463,-316.0,-4.918431927365809e-26,0.4426
1761575766.4829,-317.0,-4.690501706899841e-26,0.4426
1761575766.5023499,-317.0,-4.6438868706205517e-26,0.4426
1761575766.5237107,-322.0,-4.794779333385045e-26,0.4426
1761575766.5417871,-321.0,-5.0517437378173625e-26,0.4426
1761575766.5635931,-327.0,-5.257519650693662e-26,0.4426
1761575766.5816474,-328.0,-5.267713128674409e-26,0.4427
1761575766.6024458,-328.0,-5.0270998043706694e-26,0.4427
1761575766.6216364,-330.0,-4.603333410632489e-26,0.4427
1761575766.641722,-334.0,-4.157990563409799e-26,0.4427
1761575766.6608047,-330.0,-3.8666782726416153e-26,0.4428
1761575766.6808114,-332.0,-3.827332903494058e-26,0.4428
1761575766.7014732,-332.0,-4.004212558297655e-26,0.4428
1761575766.7215402,-329.0,-4.238975647000885e-26,0.4428
1761575766.743219,-334.0,-4.3267490786073894e-26,0.4429
1761575766.7607408,-340.0,-4.1208441672123693e-26,0.4429
1761575766.78166,-344.0,-3.6127197560710323e-26,0.4429
1761575766.8014922,-345.0,-2.9438312260636274e-26,0.4429
1761575766.821193,-349.0,-2.3393701128330542e-26,0.4429
1761575766.8407996,-346.0,-1.9943618814732885e-26,0.4429
1761575766.862168,-347.0,-1.9692933349151016e-26,0.4429
1761575766.8818583,-354.0,-2.15060154904067e-26,0.4429
1761575766.9016957,-353.0,-2.3003597232714807e-26,0.4429
1761575766.9215305,-354.0,-2.1740057560351096e-26,0.4429
1761575766.941275,-359.0,-1.6480621028101972e-26,0.443
1761575766.96186,-356.0,-7.913402417255778e-27,0.443
1761575766.9815843,-360.0,1.608785070468763e-27,0.443
1761575767.001577,-360.0,9.214897609469164e-27,0.443
1761575767.0216036,-361.0,1.2997534952136678e-26,0.443
1761575767.0414937,-360.0,1.3070725416202496e-26,0.443
1761575767.062128,-363.0,1.1624861708727226e-26,0.443
1761575767.0823128,-365.0,1.189460498490196e-26,0.443
1761575767.1016536,-368.0,1.652163276777429e-26,0.443
1761575767.1215043,-370.0,2.6138387834437925e-26,0.443
1761575767.1440232,-371.0,3.8928506541897393e-26,0.443
1761575767.161381,-374.0,5.144850970784076e-26,0.443
1761575767.1810744,-372.0,6.034888373089535e-26,0.443
1761575767.2016008,-377.0,6.414059526366661e-26,0.443
1761575767.2219722,-376.0,6.408221072749438e-26,0.443
1761575767.2433329,-382.0,6.367352547200353e-26,0.443
1761575767.2614486,-379.0,6.694482344385982e-26,0.443
1761575767.2808425,-379.0,7.637351044296985e-26,0.443
1761575767.300045,-382.0,9.150120821626392e-26,0.443
1761575767.3198144,-385.0,1.0901570621209448e-25,0.443
1761575767.3417997,-382.0,1.2433525678528089e-25,0.443
1761575767.3612854,-380.0,1.3394617092714784e-25,0.443
1761575767.3806975,-382.0,1.3730812221730524e-25,0.443
1761575767.4000142,-387.0,1.3730336894773472e-25,0.443
1761575767.4198833,-386.0,1.3891417329462355e-25,0.443
1761575767.441083,-392.0,1.4672534186125405e-25,0.443
1761575767.4598591,-394.0,1.6249821267536226e-25,0.4429
1761575767.481509,-395.0,1.8409326861636134e-25,0.4429
1761575767.499756,-394.0,2.063807567093782e-25,0.4429
1761575767.5197992,-395.0,2.2377035023177123e-25,0.4429
1761575767.5399683,-394.0,2.331209455051583e-25,0.4429
1761575767.5599015,-394.0,2.3552431554636995e-25,0.4429
1761575767.580738,-401.0,2.359648757110155e-25,0.4429
1761575767.6002357,-397.0,2.4091783076647945e-25,0.4429
1761575767.620317,-399.0,2.5503332037798373e-25,0.4429
1761575767.6406538,-399.0,2.7859662949045784e-25,0.4428
1761575767.659665,-398.0,3.0713970050510415e-25,0.4428
1761575767.6806364,-392.0,3.335254252337795e-25,0.4428
1761575767.700215,-391.0,3.5154612789392e-25,0.4428
1761575767.720703,-395.0,3.592306788317185e-25,0.4428
1761575767.7406387,-393.0,3.601089399448123e-25,0.4428
1761575767.7605047,-398.0,3.6165848103220496e-25,0.4428
1761575767.7805939,-396.0,3.7159475890916203e-25,0.4428
1761575767.8004262,-391.0,3.938336365328534e-25,0.4428
1761575767.820597,-396.0,4.262268373447636e-25,0.4428
1761575767.8402393,-399.0,4.6135522563130375e-25,0.4428
1761575767.8598847,-393.0,4.901304095302141e-25,0.4428
1761575767.8803449,-396.0,5.064680417924203e-25,0.4427
1761575767.9044247,-391.0,5.106392446100867e-25,0.4427
1761575767.9231532,-396.0,5.094697468646449e-25,0.4427
1761575767.9395797,-396.0,5.131105537057556e-25,0.4427
1761575767.9587488,-385.0,5.298877304281461e-25,0.4427
1761575767.9787474,-384.0,5.618287483948884e-25,0.4427
1761575767.9987516,-387.0,6.032492199353641e-25,0.4427
1761575768.0187457,-383.0,6.433079150930193e-25,0.4427
1761575768.0392385,-385.0,6.714054298103385e-25,0.4427
1761575768.0594807,-385.0,6.8274888130350145e-25,0.4427
1761575768.07914,-389.0,6.811723810941457e-25,0.4427
1761575768.0995233,-391.0,6.775845635321703e-25,0.4426
1761575768.118564,-390.0,6.846200389069022e-25,0.4426
1761575768.141287,-385.0,7.100943628275855e-25,0.4426
1761575768.161089,-384.0,7.5263088514889725e-25,0.4426
1761575768.1793907,-386.0,8.018713091118541e-25,0.4425
1761575768.1997437,-389.0,8.434081539993882e-25,0.4425
1761575768.221029,-385.0,8.661078757426526e-25,0.4425
1761575768.240263,-386.0,8.681129758247295e-25,0.4425
1761575768.2590432,-385.0,8.583031856462352e-25,0.4425
1761575768.2787924,-383.0,8.522032351603277e-25,0.4425
1761575768.2989037,-380.0,8.641828076400181e-25,0.4425
1761575768.3187034,-377.0,8.99839058552967e-25,0.4424
1761575768.3390071,-381.0,9.525669266075532e-25,0.4424
1761575768.3594878,-376.0,1.0063426982971555e-24,0.4424
1761575768.3793783,-375.0,1.0435970245620737e-24,0.4424
1761575768.3993878,-376.0,1.0543234327884386e-24,0.4424
1761575768.4195626,-375.0,1.0417119963742063e-24,0.4424
1761575768.4394732,-373.0,1.0211656812881763e-24,0.4424
1761575768.4594908,-364.0,1.0128576480007953e-24,0.4424
1761575768.47943,-369.0,1.0313838463054579e-24,0.4423
1761575768.4994369,-364.0,1.0777805726668833e-24,0.4423
1761575768.5195312,-359.0,1.1382208745084935e-24,0.4423
1761575768.5394545,-360.0,1.1904338913607973e-24,0.4423
1761575768.5594363,-354.0,1.2148974342230352e-24,0.4423
1761575768.579297,-354.0,1.2051918151927518e-24,0.4423
1761575768.599407,-353.0,1.1720401694409333e-24,0.4423
1761575768.6183329,-341.0,1.1385762108834919e-24,0.4423
1761575768.638417,-338.0,1.1288481440903689e-24,0.4423
1761575768.6584,-331.0,1.1552225597148632e-24,0.4423
1761575768.6781833,-330.0,1.2112340193525998e-24,0.4423
1761575768.698398,-327.0,1.2739229067845201e-24,0.4423
1761575768.7183988,-324.0,1.31494640899343e-24,0.4423
1761575768.7383842,-321.0,1.315108756548364e-24,0.4423
1761575768.758551,-316.0,1.2748759583405246e-24,0.4423
1761575768.7784033,-313.0,1.2151459317468031e-24,0.4423
1761575768.7982047,-311.0,1.1673463430904567e-24,0.4423
1761575768.8183875,-303.0,1.1574783703294284e-24,0.4423
1761575768.8386328,-299.0,1.1921469997456674e-24,0.4423
1761575768.8586812,-290.0,1.2540088051146744e-24,0.4423
1761575768.878695,-289.0,1.3095295815994577e-24,0.4422
1761575768.8986335,-284.0,1.3256454914401679e-24,0.4423
1761575768.9187243,-279.0,1.2870705867980055e-24,0.4423
1761575768.938671,-269.0,1.2052117022939807e-24,0.4423
1761575768.9584339,-265.0,1.1135669261527288e-24,0.4423
1761575768.9786913,-258.0,1.0512952922243456e-24,0.4422
1761575768.9986243,-252.0,1.0429370937256235e-24,0.4422
1761575769.0186348,-247.0,1.0847098281368478e-24,0.4422
1761575769.0387397,-245.0,1.144916044374891e-24,0.4422
1761575769.0586097,-238.0,1.179005057708268e-24,0.4422
1761575769.078625,-237.0,1.152177613690615e-24,0.4422
1761575769.0985115,-228.0,1.0580878661976571e-24,0.4422
1761575769.1184244,-227.0,9.236304524116367e-25,0.4422
1761575769.138629,-224.0,7.965590953651578e-25,0.4422
1761575769.1584046,-218.0,7.215087678138293e-25,0.4422
1761575769.1786387,-216.0,7.163699937641766e-25,0.4422
1761575769.198465,-210.0,7.614178356575977e-25,0.4422
1761575769.2186942,-205.0,8.07575125007067e-25,0.4421
1761575769.2386253,-206.0,8.005008057447215e-25,0.4421
1761575769.2574868,-201.0,7.08722795398043e-25,0.4421
1761575769.2777984,-189.0,5.412860369636669e-25,0.4421
1761575769.2976208,-185.0,3.4510658840846694e-25,0.4421
1761575769.3177457,-180.0,1.8233598978178223e-25,0.4421
1761575769.3374972,-177.0,9.853342674755486e-26,0.4421
1761575769.3576484,-171.0,9.783663596367758e-26,0.4421
1761575769.377604,-164.0,1.3851736625692788e-25,0.4421
1761575769.3977172,-163.0,1.523369285658069e-25,0.4421
1761575769.4176695,-157.0,7.882590389125864e-26,0.4421
1761575769.4375634,-153.0,-1.0268205806293862e-25,0.4421
1761575769.457608,-153.0,-3.6016942926951903e-25,0.442
1761575769.4776533,-144.0,-6.229763790912423e-25,0.442
1761575769.4976027,-142.0,-8.168385532756881e-25,0.442
1761575769.5177226,-138.0,-9.0267657958741e-25,0.442
1761575769.5375311,-137.0,-8.990098387083437e-25,0.442
1761575769.557514,-128.0,-8.753786236313702e-25,0.442
1761575769.5776398,-122.0,-9.186808233541905e-25,0.442
1761575769.597132,-121.0,-1.088623862925163e-24,0.442
1761575769.616701,-113.0,-1.3850567564322313e-24,0.442
1761575769.6376834,-111.0,-1.744930522814941e-24,0.4419
1761575769.6578605,-108.0,-2.07205204739608e-24,0.4419
1761575769.6777778,-103.0,-2.2857809946483048e-24,0.4419
1761575769.6974788,-104.0,-2.3641588724182372e-24,0.4419
1761575769.7168865,-99.0,-2.358576957870083e-24,0.4419
1761575769.737618,-99.0,-2.370788806129202e-24,0.4419
1761575769.7575247,-92.0,-2.5023156433946676e-24,0.4419
1761575769.777867,-93.0,-2.8012900741438383e-24,0.4419
1761575769.7973852,-90.0,-3.234452258949696e-24,0.4419
1761575769.817388,-88.0,-3.700301931330312e-24,0.4419
1761575769.837711,-85.0,-4.078694090545675e-24,0.4418
1761575769.857739,-85.0,-4.292823294338164e-24,0.4418
1761575769.8781056,-81.0,-4.351778349327242e-24,0.4418
1761575769.8973053,-80.0,-4.350345647329348e-24,0.4418
1761575769.9160368,-77.0,-4.423903589177942e-24,0.4418
1761575769.9363809,-70.0,-4.679663740777451e-24,0.4418
1761575769.9565735,-69.0,-5.1390290009143106e-24,0.4418
1761575769.9764173,-74.0,-5.7218518852558834e-24,0.4418
1761575769.9957066,-72.0,-6.28305164905355e-24,0.4418
1761575770.0158992,-73.0,-6.685172561567359e-24,0.4418
1761575770.0375772,-73.0,-6.870771397449023e-24,0.4418
1761575770.056497,-74.0,-6.896706324917373e-24,0.4418
1761575770.0760422,-73.0,-6.910356146910148e-24,0.4417
1761575770.0957217,-75.0,-7.077164157897829e-24,0.4417
1761575770.1157358,-75.0,-7.494893158892648e-24,0.4417
1761575770.1361818,-76.0,-8.13880386268247e-24,0.4417
1761575770.1560726,-80.0,-8.868100429589743e-24,0.4417
1761575770.176637,-83.0,-9.49349359351119e-24,0.4417
1761575770.1961586,-83.0,-9.873711328089249e-24,0.4417
1761575770.2157066,-86.0,-9.991931518226378e-24,0.4417
1761575770.2372687,-83.0,-9.971047583497522e-24,0.4416
1761575770.2567346,-85.0,-1.0016553577155454e-23,0.4416
1761575770.2763746,-86.0,-1.0313155333715235e-23,0.4416
1761575770.2959564,-86.0,-1.0926822716463433e-23,0.4416
1761575770.3157804,-86.0,-1.1763866399293947e-23,0.4416
1761575770.3367648,-94.0,-1.2611467355040686e-23,0.4416
1761575770.356538,-96.0,-1.3242711516161007e-23,0.4416
1761575770.3766396,-96.0,-1.353450958876948e-23,0.4416
1761575770.3961618,-96.0,-1.3537323997512765e-23,0.4416
1761575770.416203,-101.0,-1.345765817811916e-23,0.4416
1761575770.436694,-104.0,-1.3557900803766492e-23,0.4416
1761575770.4566777,-102.0,-1.4021638571895873e-23,0.4416
1761575770.4767895,-111.0,-1.4853157436325563e-23,0.4416
1761575770.4966764,-110.0,-1.586555093576839e-23,0.4417
1761575770.516822,-109.0,-1.676830570107417e-23,0.4417
1761575770.5367064,-117.0,-1.73137118462762e-23,0.4417
1761575770.5558643,-114.0,-1.7428513280833617e-23,0.4417
1761575770.5754972,-113.0,-1.7261089199998768e-23,0.4417
1761575770.59577,-113.0,-1.711503995573399e-23,0.4417
1761575770.6154733,-111.0,-1.7298007953593855e-23,0.4417
1761575770.6355567,-116.0,-1.7960456854338742e-23,0.4417
1761575770.6555805,-121.0,-1.9008298047744205e-23,0.4418
1761575770.6757228,-124.0,-2.0138972551660554e-23,0.4418
1761575770.695548,-126.0,-2.0988548681581255e-23,0.4418
1761575770.7156086,-131.0,-2.131861945376852e-23,0.4418
1761575770.7356017,-127.0,-2.1147225428639966e-23,0.4418
1761575770.755608,-126.0,-2.0752334137518958e-23,0.4418
1761575770.7757542,-133.0,-2.0539401073153584e-23,0.4418
1761575770.797622,-132.0,-2.083525588839829e-23,0.4419
1761575770.8171787,-136.0,-2.171237724273007e-23,0.4419
1761575770.8365908,-137.0,-2.2937137770533333e-23,0.4419
1761575770.8551416,-136.0,-2.4075577747631822e-23,0.4419
1761575770.8794525,-136.0,-2.470954505799408e-23,0.442
1761575770.895114,-139.0,-2.4655802628913818e-23,0.442
1761575770.9165723,-136.0,-2.4073555922572527e-23,0.442
1761575770.9364693,-139.0,-2.3398299718275057e-23,0.442
1761575770.9576702,-137.0,-2.3127571076974595e-23,0.4421
1761575770.9764187,-143.0,-2.3563052433633433e-23,0.4421
1761575770.9976578,-141.0,-2.464175336408759e-23,0.4421
1761575771.014805,-148.0,-2.594927394222061e-23,0.4421
1761575771.0368054,-146.0,-2.691767601068636e-23,0.4422
1761575771.0571,-148.0,-2.711398583182296e-23,0.4422
1761575771.080241,-156.0,-2.647302637382068e-23,0.4422
1761575771.09472,-156.0,-2.5349816020026975e-23,0.4422
1761575771.1167026,-167.0,-2.435473487551945e-23,0.4422
1761575771.1347282,-167.0,-2.4046454055597955e-23,0.4422
1761575771.1557422,-173.0,-2.463596607293681e-23,0.4422
1761575771.175876,-176.0,-2.5857201955455594e-23,0.4422
1761575771.1961367,-181.0,-2.708059576526279e-23,0.4422
1761575771.2148516,-181.0,-2.762276031336745e-23,0.4422
1761575771.2384996,-184.0,-2.7100367159947023e-23,0.4422
1761575771.2538884,-187.0,-2.5645314005482726e-23,0.4423
1761575771.273878,-189.0,-2.3861381911290057e-23,0.4423
1761575771.2966132,-192.0,-2.2531673661279445e-23,0.4423
1761575771.3147652,-200.0,-2.2217036306871302e-23,0.4423
1761575771.3376458,-199.0,-2.2949983535670048e-23,0.4423
1761575771.3571622,-207.0,-2.4189240427811922e-23,0.4424
1761575771.3747609,-206.0,-2.5072184997083947e-23,0.4424
1761575771.3941863,-211.0,-2.484849188334958e-23,0.4424
1761575771.41469,-211.0,-2.3277422177074135e-23,0.4424
1761575771.43453,-216.0,-2.0778980091626153e-23,0.4424
1761575771.4535744,-220.0,-1.8247117176906878e-23,0.4424
1761575771.475886,-215.0,-1.6605269729726925e-23,0.4424
1761575771.4974852,-221.0,-1.6323496342816402e-23,0.4425
1761575771.5147529,-219.0,-1.7147899416815657e-23,0.4425
1761575771.536274,-221.0,-1.819487348667396e-23,0.4425
1761575771.555143,-219.0,-1.837969462850566e-23,0.4425
1761575771.5775285,-217.0,-1.6972445745163794e-23,0.4426
1761575771.5953596,-218.0,-1.3996966857160482e-23,0.4426
1761575771.614242,-227.0,-1.0255995347638372e-23,0.4426
1761575771.6368911,-224.0,-6.950074076663571e-24,0.4426
1761575771.6538215,-230.0,-5.068686363815275e-24,0.4427
1761575771.678286,-226.0,-4.860446410315976e-24,0.4427
1761575771.6945298,-232.0,-5.6636139379918715e-24,0.4427
1761575771.7141397,-239.0,-6.204160808926185e-24,0.4427
1761575771.7365048,-241.0,-5.229515056102544e-24,0.4427
1761575771.7582088,-244.0,-2.1636988247230347e-24,0.4427
1761575771.7772105,-249.0,2.557784036688693e-24,0.4427
1761575771.7958152,-252.0,7.664978492863496e-24,0.4427
1761575771.817767,-256.0,1.1676130445496707e-23,0.4427
1761575771.8327165,-259.0,1.3663125289662904e-23,0.4427
1761575771.855252,-264.0,1.3766617875089872e-23,0.4427
1761575771.8735023,-265.0,1.3178513366604136e-23,0.4427
1761575771.8944252,-267.0,1.3573607259771486e-23,0.4427
1761575771.9138134,-272.0,1.6259419456525982e-23,0.4427
1761575771.9343007,-281.0,2.1474483749595628e-23,0.4427
1761575771.9544737,-286.0,2.820977111669017e-23,0.4427
1761575771.9738188,-289.0,3.4673489373215696e-23,0.4427
1761575771.9955115,-288.0,3.918911836260953e-23,0.4427
1761575772.0145044,-295.0,4.107914556057215e-23,0.4427
1761575772.0362592,-300.0,4.1071511009525635e-23,0.4427
1761575772.0574772,-305.0,4.0991708628671904e-23,0.4427
1761575772.0728579,-308.0,4.286499956574784e-23,0.4427
1761575772.094229,-311.0,4.7868112910957483e-23,0.4427
1761575772.1193511,-313.0,5.56710263623195e-23,0.4427
1761575772.1364744,-320.0,6.453305426907159e-23,0.4427
1761575772.1601727,-316.0,7.214157274552281e-23,0.4427
1761575772.176949,-319.0,7.679269290294804e-23,0.4427
1761575772.202895,-318.0,7.831385942651477e-23,0.4428
1761575772.2200043,-317.0,7.823265854483016e-23,0.4428
1761575772.237758,-321.0,7.906502649633097e-23,0.4428
1761575772.258315,-325.0,8.305012499611347e-23,0.4428
1761575772.2764304,-324.0,9.096525261544127e-23,0.4428
1761575772.2949066,-329.0,1.0164464012307922e-22,0.4428
1761575772.317004,-326.0,1.1248970383980022e-22,0.4428
1761575772.3381033,-330.0,1.2075450201350343e-22,0.4428
1761575772.3571627,-331.0,1.249737059128163e-22,0.4428
1761575772.3760517,-329.0,1.2579360400798887e-22,0.4428
1761575772.3950157,-333.0,1.2574114008579257e-22,0.4429
1761575772.4134016,-335.0,1.2799763086733115e-22,0.4429
1761575772.4362252,-335.0,1.3476768924025134e-22,0.4429
1761575772.4538794,-335.0,1.460756354038509e-22,0.4429
1761575772.4778304,-336.0,1.5964051878248276e-22,0.4429
1761575772.4916728,-335.0,1.7195000450614152e-22,0.4429
1761575772.517003,-336.0,1.80032609685229e-22,0.4429
1761575772.5328016,-336.0,1.8303714662158526e-22,0.4429
1761575772.5558248,-334.0,1.8278371310199194e-22,0.4429
1761575772.5743632,-336.0,1.8294583500020056e-22,0.4429
1761575772.5937119,-341.0,1.8722179472944878e-22,0.4429
1761575772.61711,-343.0,1.9739989218027343e-22,0.4429
1761575772.6323752,-343.0,2.123238072040168e-22,0.4429
1761575772.6570563,-345.0,2.283447175549619e-22,0.4429
1761575772.6726189,-347.0,2.4109927547146524e-22,0.4429
1761575772.6940506,-350.0,2.47751175039881e-22,0.4429
1761575772.7162898,-354.0,2.4854790947401356e-22,0.4429
1761575772.7337663,-354.0,2.4684409087699207e-22,0.4429
1761575772.7527933,-354.0,2.4750136543936256e-22,0.4428
1761575772.7762666,-355.0,2.544191179384368e-22,0.4428
1761575772.7943366,-360.0,2.684428065513628e-22,0.4428
1761575772.8135602,-358.0,2.8676252687998484e-22,0.4428
1761575772.8313625,-358.0,3.0419170032016224e-22,0.4428
1761575772.8538878,-357.0,3.1575264709350895e-22,0.4428
1761575772.8726387,-359.0,3.1928358761805367e-22,0.4428
1761575772.8932157,-356.0,3.1670535415848007e-22,0.4428
1761575772.9138548,-359.0,3.132178332056763e-22,0.4428
1761575772.9316528,-361.0,3.1474145497452517e-22,0.4428
1761575772.9520507,-363.0,3.2485236910997258e-22,0.4428
1761575772.9748125,-360.0,3.427877339734303e-22,0.4428
1761575772.9960904,-363.0,3.6361784710537884e-22,0.4428
1761575773.0138998,-367.0,3.8060461848687447e-22,0.4427
1761575773.032626,-369.0,3.886240583693441e-22,0.4427
1761575773.0515194,-370.0,3.869176203649761e-22,0.4427
1761575773.074856,-367.0,3.7970045033936232e-22,0.4427
1761575773.093856,-371.0,3.742004690436377e-22,0.4427
1761575773.1149065,-373.0,3.7702356296279065e-22,0.4427
1761575773.130361,-372.0,3.9066020382820268e-22,0.4427
1761575773.1513977,-374.0,4.119664306647208e-22,0.4427
1761575773.1713557,-373.0,4.335126143152132e-22,0.4426
1761575773.1912947,-371.0,4.472396109964537e-22,0.4426
1761575773.212576,-371.0,4.486277490299862e-22,0.4426
1761575773.2308722,-375.0,4.39225689804618e-22,0.4426
1761575773.2505946,-375.0,4.261349731949559e-22,0.4426
1761575773.2706113,-377.0,4.1856638752878328e-22,0.4426
1761575773.2916994,-379.0,4.231204392140135e-22,0.4426
1761575773.3115118,-378.0,4.401941036598884e-22,0.4426
1761575773.3339176,-383.0,4.6344826034623455e-22,0.4426
1761575773.350883,-386.0,4.827679987127361e-22,0.4425
1761575773.3716714,-383.0,4.893444040246092e-22,0.4425
1761575773.3911057,-393.0,4.803288990389096e-22,0.4425
1761575773.4106734,-391.0,4.606065445812631e-22,0.4425
1761575773.4305077,-390.0,4.406169934084322e-22,0.4425
1761575773.450516,-395.0,4.31163303382657e-22,0.4424
1761575773.470436,-392.0,4.377699738153311e-22,0.4424
1761575773.4907627,-390.0,4.575156323800541e-22,0.4424
1761575773.5105197,-389.0,4.801194710995328e-22,0.4424
1761575773.530435,-391.0,4.929270802313705e-22,0.4424
1761575773.5504982,-390.0,4.87386084544574e-22,0.4424
1761575773.5708678,-392.0,4.637027971588052e-22,0.4424
1761575773.5906324,-395.0,4.311557402489702e-22,0.4424
1761575773.6112425,-393.0,4.036846929615289e-22,0.4424
1761575773.6310456,-397.0,3.928232837872044e-22,0.4424
1761575773.6513808,-391.0,4.0153459912506338e-22,0.4424
1761575773.67126,-395.0,4.2221561822080926e-22,0.4423
1761575773.691271,-393.0,4.40121633104285e-22,0.4423
1761575773.7112656,-394.0,4.406927092884519e-22,0.4423
1761575773.7314382,-396.0,4.1714974440385026e-22,0.4423
1761575773.751169,-395.0,3.744052591638068e-22,0.4423
1761575773.7712765,-401.0,3.2706171323079713e-22,0.4423
1761575773.7902312,-394.0,2.922476799669429e-22,0.4423
1761575773.8103333,-393.0,2.8077646853142595e-22,0.4423
1761575773.8297062,-392.0,2.911621331273676e-22,0.4423
1761575773.8494334,-390.0,3.0976147474525635e-22,0.4423
1761575773.8693051,-393.0,3.172735765525363e-22,0.4423
1761575773.889492,-389.0,2.9851888622739893e-22,0.4423
1761575773.9095423,-394.0,2.5055319229269534e-22,0.4423
1761575773.9297414,-392.0,1.8479511464460582e-22,0.4423
1761575773.94926,-398.0,1.2175745466033802e-22,0.4423
1761575773.9695215,-396.0,8.076592215487082e-23,0.4422
1761575773.9897714,-401.0,6.97858248113973e-23,0.4422
1761575774.0096502,-395.0,8.067592160228719e-23,0.4422
1761575774.029514,-395.0,9.261867947614273e-23,0.4422
1761575774.0500016,-400.0,8.23422651350113e-23,0.4422
1761575774.0698347,-398.0,3.6133261901116425e-23,0.4422
1761575774.090328,-398.0,-4.254497774083494e-23,0.4422
1761575774.110747,-397.0,-1.3402581903475604e-22,0.4422
1761575774.1305304,-395.0,-2.11923339419418e-22,0.4422
1761575774.1509008,-393.0,-2.565965161936097e-22,0.4422
1761575774.169555,-392.0,-2.6575941923688256e-22,0.4422
1761575774.189761,-390.0,-2.5655431887160116e-22,0.4422
1761575774.2097445,-391.0,-2.575810391032368e-22,0.4422
1761575774.229892,-394.0,-2.945465264910631e-22,0.4422
1761575774.2497232,-396.0,-3.7671229230533917e-22,0.4422
1761575774.2698967,-393.0,-4.9125681672298935e-22,0.4422
1761575774.2909012,-390.0,-6.088895316082657e-22,0.4421
