tiempo_relativo_s,Crudo,Filtrado,Normalizado
0.0041849613189697266,-63243.0,-314.8604,0.4405
0.005918025970458984,-63324.0,-328.8385,0.4404
0.017996549606323242,-63387.0,-351.3264,0.4402
0.02595376968383789,-63431.0,-381.5131,0.4401
0.03847098350524902,-63414.0,-414.5988,0.4399
0.03995513916015625,-63252.0,-440.2709,0.4397
0.04169869422912598,-62968.0,-440.6692,0.4397
0.06527209281921387,-62681.0,-391.1057,0.44
0.06605172157287598,-62451.0,-269.402,0.4407
0.08655166625976562,-62344.0,-71.9523,0.4419
0.0870821475982666,-62319.0,175.2353,0.4434
0.08758807182312012,-62331.0,421.5664,0.4448
0.08855414390563965,-62347.0,612.4949,0.446
0.08941149711608887,-62342.0,713.6282,0.4466
0.11094856262207031,-62333.0,723.7819,0.4466
0.13252520561218262,-62369.0,670.2322,0.4463
0.1330125331878662,-62441.0,590.3543,0.4458
0.13347625732421875,-62498.0,512.05,0.4454
0.1339409351348877,-62547.0,445.2791,0.445
0.13439011573791504,-62566.0,386.9586,0.4446
0.13554883003234863,-62576.0,331.4011,0.4443
0.15628480911254883,-62581.0,277.3821,0.444
0.15680646896362305,-62600.0,228.4896,0.4437
0.15731096267700195,-62610.0,189.1211,0.4434
0.15786480903625488,-62640.0,160.5735,0.4433
0.17255210876464844,-62670.0,139.9676,0.4432
0.17652630805969238,-62713.0,121.7081,0.443
0.17700862884521484,-62774.0,99.824,0.4429
0.17746710777282715,-62818.0,69.9898,0.4427
0.17792963981628418,-62863.0,30.8467,0.4425
0.17842459678649902,-62889.0,-15.2061,0.4422
0.17909669876098633,-62897.0,-62.4826,0.442
0.19172453880310059,-62902.0,-103.735,0.4417
0.19220852851867676,-62900.0,-132.5906,0.4415
0.19268584251403809,-62902.0,-145.9121,0.4415
0.19315147399902344,-62918.0,-144.9579,0.4415
0.20076704025268555,-62941.0,-134.9192,0.4415
0.21268534660339355,-62962.0,-123.0848,0.4416
0.22733569145202637,-62985.0,-115.9818,0.4416
0.23241877555847168,-63008.0,-116.9625,0.4416
0.23318219184875488,-63037.0,-125.5858,0.4416
0.2489912509918213,-63068.0,-139.0515,0.4415
0.26445960998535156,-63110.0,-154.3199,0.4414
0.2649693489074707,-63163.0,-169.8838,0.4413
0.2654707431793213,-63197.0,-186.1602,0.4412
0.26636552810668945,-63239.0,-204.3027,0.4411
0.28232359886169434,-63284.0,-224.5218,0.441
0.2829773426055908,-63309.0,-245.5948,0.4409
0.2984495162963867,-63253.0,-264.6648,0.4408
0.29923319816589355,-63043.0,-274.5553,0.4407
0.31157755851745605,-62749.0,-259.4922,0.4408
0.315690279006958,-62481.0,-195.9729,0.4412
0.31658029556274414,-62316.0,-64.9168,0.4419
0.333026647567749,-62239.0,130.8392,0.4431
0.3470027446746826,-62224.0,358.8363,0.4445
0.3501429557800293,-62240.0,567.8917,0.4457
0.35143589973449707,-62261.0,710.9569,0.4465
0.3671596050262451,-62270.0,765.1946,0.4469
0.3707914352416992,-62292.0,738.262,0.4467
0.372910737991333,-62333.0,659.5082,0.4462
0.39135313034057617,-62418.0,562.6061,0.4457
0.39615440368652344,-62491.0,470.154,0.4451
0.4112570285797119,-62545.0,388.4985,0.4446
0.428178071975708,-62579.0,313.6213,0.4442
0.429201602935791,-62586.0,240.9334,0.4438
0.43269991874694824,-62590.0,171.3174,0.4433
0.4445323944091797,-62604.0,110.5637,0.443
0.4455718994140625,-62620.0,64.4425,0.4427
0.4493234157562256,-62654.0,33.9925,0.4425
0.4621298313140869,-62705.0,14.2823,0.4424
0.4789595603942871,-62760.0,-3.5094,0.4423
0.5009913444519043,-62811.0,-28.1665,0.4422
0.5147824287414551,-62865.0,-64.5869,0.4419
0.5331554412841797,-62914.0,-112.0938,0.4417
0.5514016151428223,-62964.0,-165.693,0.4413
0.5757937431335449,-63011.0,-218.9485,0.441
0.6002957820892334,-63052.0,-266.7033,0.4407
0.6139209270477295,-63094.0,-306.3668,0.4405
0.6306650638580322,-63138.0,-337.8091,0.4403
0.6483538150787354,-63171.0,-362.5339,0.4402
0.6757850646972656,-63211.0,-382.5229,0.4401
0.6952223777770996,-63255.0,-399.3338,0.44
0.7154240608215332,-63299.0,-414.054,0.4399
0.74076247215271,-63342.0,-427.6064,0.4398
0.7638471126556396,-63398.0,-440.766,0.4397
0.7793014049530029,-63458.0,-454.2613,0.4396
0.7983567714691162,-63531.0,-469.0808,0.4395
0.814993143081665,-63627.0,-486.786,0.4394
0.8309342861175537,-63722.0,-509.5487,0.4393
0.8667845726013184,-63797.0,-539.3373,0.4391
0.8688514232635498,-63869.0,-575.9798,0.4389
0.9044492244720459,-63928.0,-615.7328,0.4387
0.9089133739471436,-63925.0,-651.8019,0.4385
0.9288945198059082,-63751.0,-674.2919,0.4383
0.9563648700714111,-63464.0,-667.141,0.4384
0.9815435409545898,-63157.0,-606.8448,0.4387
0.9904112815856934,-62941.0,-471.2609,0.4395
1.0170364379882812,-62821.0,-256.9604,0.4408
1.0292720794677734,-62805.0,8.7037,0.4424
1.049368143081665,-62819.0,272.9729,0.4439
1.068296194076538,-62861.0,479.1374,0.4452
1.0993001461029053,-62918.0,590.5554,0.4458
1.1171324253082275,-62980.0,602.8285,0.4459
1.1301589012145996,-63036.0,539.4709,0.4455
1.1509902477264404,-63111.0,437.0374,0.4449
1.1819298267364502,-63187.0,328.886,0.4443
1.1993484497070312,-63245.0,234.8651,0.4437
1.2181785106658936,-63274.0,160.4911,0.4433
1.2399122714996338,-63280.0,103.2863,0.4429
1.2493932247161865,-63264.0,60.2044,0.4427
1.2684416770935059,-63255.0,31.2204,0.4425
1.288550615310669,-63248.0,17.9968,0.4424
1.314229965209961,-63267.0,20.2822,0.4424
1.3342900276184082,-63302.0,33.3006,0.4425
1.3560547828674316,-63353.0,48.0428,0.4426
1.372549295425415,-63404.0,54.3607,0.4426
1.3979322910308838,-63448.0,45.1645,0.4426
1.4131810665130615,-63496.0,19.3729,0.4424
1.4352624416351318,-63552.0,-18.3091,0.4422
1.457205057144165,-63606.0,-60.6229,0.442
1.4784770011901855,-63652.0,-101.4015,0.4417
1.488990306854248,-63688.0,-137.1291,0.4415
1.5111753940582275,-63734.0,-166.4411,0.4413
1.5303900241851807,-63757.0,-189.183,0.4412
1.553076982498169,-63777.0,-205.5981,0.4411
1.5701520442962646,-63792.0,-215.5829,0.441
1.5894818305969238,-63819.0,-218.7138,0.441
1.6081414222717285,-63844.0,-215.3042,0.441
1.6424720287322998,-63871.0,-207.2513,0.4411
1.6534087657928467,-63894.0,-197.4678,0.4411
1.6880667209625244,-63929.0,-188.5961,0.4412
1.6891522407531738,-63963.0,-182.2029,0.4412
1.7133870124816895,-63996.0,-178.8423,0.4413
1.7472660541534424,-64025.0,-178.2525,0.4413
1.7576868534088135,-64021.0,-179.0932,0.4413
1.7802832126617432,-63870.0,-177.2716,0.4413
1.8030791282653809,-63576.0,-161.5012,0.4414
1.8200342655181885,-63265.0,-110.027,0.4417
1.8543815612792969,-63008.0,2.6599,0.4423
1.8553519248962402,-62863.0,188.3304,0.4434
1.8742551803588867,-62799.0,429.7122,0.4449
1.8904376029968262,-62807.0,681.2739,0.4464
1.9099130630493164,-62828.0,887.3761,0.4476
1.9497408866882324,-62866.0,1006.3157,0.4483
1.9506518840789795,-62910.0,1026.1128,0.4484
1.9728577136993408,-62987.0,964.2183,0.448
1.9890055656433105,-63078.0,853.8107,0.4474
2.0155317783355713,-63168.0,726.767,0.4466
2.052555799484253,-63237.0,603.3051,0.4459
2.060521364212036,-63282.0,491.4975,0.4452
2.0848898887634277,-63298.0,393.0338,0.4447
2.0971970558166504,-63296.0,309.0436,0.4442
2.1342124938964844,-63292.0,242.3886,0.4438
2.1372463703155518,-63308.0,195.8748,0.4435
2.168987512588501,-63321.0,168.8474,0.4433
2.170060634613037,-63345.0,155.6421,0.4432
2.1880815029144287,-63375.0,147.4798,0.4432
2.2200162410736084,-63429.0,135.8278,0.4431
2.2401556968688965,-63475.0,114.7809,0.443
2.2594265937805176,-63533.0,81.9782,0.4428
2.2757959365844727,-63586.0,38.5076,0.4425
2.3049001693725586,-63643.0,-12.0107,0.4423
2.3078839778900146,-63686.0,-64.9595,0.4419
2.3414011001586914,-63718.0,-115.8336,0.4416
2.3631973266601562,-63746.0,-160.6758,0.4414
2.376382827758789,-63778.0,-196.5268,0.4412
2.394286870956421,-63814.0,-222.3009,0.441
2.4124703407287598,-63834.0,-239.276,0.4409
2.4299309253692627,-63871.0,-250.2901,0.4408
2.448718547821045,-63915.0,-258.439,0.4408
2.478816032409668,-63956.0,-266.5139,0.4407
2.489772319793701,-63987.0,-276.6405,0.4407
2.5179860591888428,-64029.0,-289.4695,0.4406
2.533900260925293,-64070.0,-303.9782,0.4405
2.5575063228607178,-64118.0,-318.5497,0.4404
2.5716240406036377,-64171.0,-332.2879,0.4403
2.5933406352996826,-64211.0,-345.4031,0.4403
2.620175838470459,-64228.0,-358.268,0.4402
2.6413660049438477,-64135.0,-368.8601,0.4401
2.651674270629883,-63890.0,-368.4601,0.4401
2.66955304145813,-63585.0,-338.0466,0.4403
2.6991384029388428,-63312.0,-252.2047,0.4408
2.716811180114746,-63133.0,-93.781,0.4418
2.735400915145874,-63036.0,129.5154,0.4431
2.7534213066101074,-63006.0,380.8512,0.4446
2.7714381217956543,-63022.0,607.4255,0.4459
2.8017826080322266,-63038.0,762.7818,0.4468
2.8208236694335938,-63064.0,825.0182,0.4472
2.8398354053497314,-63105.0,801.8547,0.4471
2.856961250305176,-63167.0,721.6031,0.4466
2.882333517074585,-63264.0,616.7932,0.446
2.9119975566864014,-63335.0,510.3828,0.4454
2.9253745079040527,-63379.0,411.6184,0.4448
2.9404120445251465,-63406.0,321.3305,0.4442
2.947556972503662,-63417.0,239.4805,0.4437
2.977236270904541,-63435.0,168.5103,0.4433
2.9870662689208984,-63446.0,111.8591,0.443
3.00958514213562,-63466.0,70.8521,0.4427
3.049208641052246,-63505.0,42.9627,0.4426
3.0578174591064453,-63544.0,22.188,0.4425
3.092770576477051,-63584.0,1.166,0.4423
3.102539300918579,-63638.0,-25.9084,0.4422
3.122081995010376,-63696.0,-61.4892,0.442
3.131917953491211,-63741.0,-104.8396,0.4417
3.1478970050811768,-63806.0,-153.1275,0.4414
3.177963972091675,-63868.0,-202.8674,0.4411
3.2009363174438477,-63920.0,-251.3999,0.4408
3.218768358230591,-63967.0,-297.1719,0.4406
3.23042368888855,-64005.0,-338.942,0.4403
3.250757932662964,-64045.0,-375.1609,0.4401
3.2787046432495117,-64095.0,-404.4409,0.4399
3.3003549575805664,-64147.0,-426.7356,0.4398
3.3204729557037354,-64185.0,-443.8357,0.4397
3.344278573989868,-64226.0,-458.2382,0.4396
3.3615212440490723,-64263.0,-471.3966,0.4395
3.3850841522216797,-64307.0,-483.2306,0.4395
3.4010207653045654,-64361.0,-493.0615,0.4394
3.421203851699829,-64422.0,-500.9889,0.4393
3.4537925720214844,-64473.0,-508.4767,0.4393
3.4712789058685303,-64517.0,-517.2963,0.4393
3.4742157459259033,-64563.0,-527.8236,0.4392
3.4962525367736816,-64592.0,-538.3397,0.4391
3.5305259227752686,-64524.0,-545.0018,0.4391
3.5319440364837646,-64317.0,-539.7357,0.4391
3.5523672103881836,-64054.0,-506.7034,0.4393
3.573078155517578,-63796.0,-424.2906,0.4398
3.588348627090454,-63599.0,-276.4944,0.4407
3.608576774597168,-63487.0,-66.9822,0.4419
3.630459785461426,-63446.0,175.422,0.4434
3.652087450027466,-63450.0,405.1556,0.4447
3.6730992794036865,-63458.0,577.9077,0.4458
3.688586473464966,-63473.0,668.252,0.4463
3.722144365310669,-63504.0,677.4248,0.4463
3.727553367614746,-63555.0,627.746,0.446
3.7483365535736084,-63629.0,548.594,0.4456
3.7669155597686768,-63698.0,463.0315,0.4451
3.788011074066162,-63745.0,382.1625,0.4446
3.8207814693450928,-63777.0,308.0247,0.4441
3.8413147926330566,-63786.0,240.1104,0.4437
3.8482248783111572,-63774.0,180.0006,0.4434
3.8701283931732178,-63786.0,131.789,0.4431
3.8981993198394775,-63809.0,98.9758,0.4429
3.9166274070739746,-63846.0,80.4945,0.4428
3.935014009475708,-63880.0,69.8063,0.4427
3.952511787414551,-63922.0,58.007,0.4427
3.9703166484832764,-63972.0,38.1631,0.4425
3.9887282848358154,-64030.0,7.6171,0.4424
4.006845712661743,-64077.0,-32.3851,0.4421
4.0379884243011475,-64143.0,-78.3128,0.4419
4.066220045089722,-64192.0,-126.0996,0.4416
4.067238807678223,-64231.0,-172.3703,0.4413
4.09387993812561,-64260.0,-214.3564,0.441
4.114863395690918,-64299.0,-249.5228,0.4408
4.133171081542969,-64336.0,-276.1797,0.4407
4.150960683822632,-64364.0,-294.4588,0.4406
4.1720404624938965,-64393.0,-306.1603,0.4405
4.198431491851807,-64425.0,-313.4889,0.4405
4.217044830322266,-64450.0,-318.187,0.4404
4.234620809555054,-64498.0,-321.4087,0.4404
4.255269289016724,-64535.0,-324.1933,0.4404
4.284307956695557,-64584.0,-327.8335,0.4404
4.289419651031494,-64626.0,-333.5754,0.4403
4.309295892715454,-64675.0,-341.9582,0.4403
4.327885627746582,-64693.0,-352.3708,0.4402
4.358423709869385,-64642.0,-362.0178,0.4402
4.3669373989105225,-64481.0,-363.5832,0.4402
4.399402379989624,-64226.0,-342.5663,0.4403
4.418211460113525,-63971.0,-278.6898,0.4407
4.43645715713501,-63766.0,-154.7915,0.4414
4.455218076705933,-63633.0,30.186,0.4425
4.473312616348267,-63577.0,253.7971,0.4438
4.49270486831665,-63552.0,475.3698,0.4451
4.51573634147644,-63541.0,651.9532,0.4462
4.5345299243927,-63547.0,755.7581,0.4468
4.554245710372925,-63571.0,782.9966,0.447
4.576266288757324,-63626.0,750.0299,0.4468
4.589139938354492,-63696.0,681.3652,0.4464
4.619980812072754,-63743.0,597.9951,0.4459
4.642738342285156,-63791.0,512.5117,0.4454
4.656278371810913,-63814.0,430.8235,0.4449
4.671318054199219,-63824.0,356.0178,0.4444
4.689718246459961,-63843.0,290.8413,0.444
4.708982467651367,-63863.0,237.5794,0.4437
4.736554145812988,-63881.0,196.389,0.4435
4.748522520065308,-63903.0,164.6824,0.4433
4.775088548660278,-63930.0,138.2238,0.4431
4.800447940826416,-63975.0,112.6708,0.443
4.809326648712158,-64028.0,84.3369,0.4428
4.840165615081787,-64082.0,50.4262,0.4426
4.85116171836853,-64137.0,9.4739,0.4424
4.880512475967407,-64188.0,-38.0017,0.4421
4.896881103515625,-64242.0,-89.4611,0.4418
4.918392658233643,-64278.0,-141.1868,0.4415
4.9373273849487305,-64307.0,-189.1797,0.4412
4.957218170166016,-64340.0,-229.9012,0.441
4.980316400527954,-64369.0,-261.0867,0.4408
5.013265609741211,-64408.0,-282.6687,0.4406
5.026850700378418,-64443.0,-296.8648,0.4406
5.048100709915161,-64470.0,-307.135,0.4405
5.048973321914673,-64499.0,-316.4064,0.4404
5.068538427352905,-64534.0,-325.8278,0.4404
5.088882684707642,-64565.0,-335.0822,0.4403
5.107266664505005,-64606.0,-343.498,0.4403
5.127026796340942,-64643.0,-350.9052,0.4402
5.1594157218933105,-64676.0,-357.7366,0.4402
5.166552782058716,-64698.0,-364.3195,0.4402
5.186915159225464,-64678.0,-369.6789,0.4401
5.207965612411499,-64525.0,-369.4206,0.4401
5.2280213832855225,-64290.0,-352.3808,0.4402
5.256505489349365,-64022.0,-299.7418,0.4405
5.26800537109375,-63775.0,-191.8896,0.4412
5.2868664264678955,-63610.0,-21.2442,0.4422
5.317155361175537,-63523.0,197.6342,0.4435
5.332247018814087,-63484.0,428.721,0.4449
5.35273289680481,-63463.0,627.4276,0.446
5.369020700454712,-63460.0,758.8699,0.4468
5.390275478363037,-63477.0,810.6287,0.4471
5.407506227493286,-63500.0,793.2989,0.447
5.436063289642334,-63564.0,730.7875,0.4467
5.4528608322143555,-63625.0,647.4635,0.4462
5.471547842025757,-63688.0,559.3392,0.4456
5.494201898574829,-63722.0,472.8674,0.4451
5.5074450969696045,-63736.0,389.5748,0.4446
5.525823354721069,-63731.0,311.4796,0.4442
5.54617714881897,-63743.0,243.0473,0.4438
5.5834641456604,-63750.0,188.9285,0.4434
5.597796201705933,-63773.0,150.292,0.4432
5.617045164108276,-63807.0,123.3439,0.4431
5.633143901824951,-63836.0,100.8137,0.4429
5.652668237686157,-63873.0,75.2648,0.4428
5.672103643417358,-63916.0,42.1954,0.4426
5.693833112716675,-63958.0,1.0069,0.4423
5.721290111541748,-64005.0,-46.0367,0.442
5.740382432937622,-64058.0,-95.6047,0.4418
5.746978282928467,-64110.0,-144.9497,0.4415
5.765549182891846,-64153.0,-192.5944,0.4412
5.788625717163086,-64179.0,-237.7212,0.4409
5.8095924854278564,-64215.0,-278.9946,0.4407
5.827874183654785,-64250.0,-314.4884,0.4405
5.863862037658691,-64277.0,-342.9001,0.4403
5.878121852874756,-64315.0,-364.4275,0.4402
5.89207649230957,-64354.0,-380.6715,0.4401
5.927157878875732,-64388.0,-394.0264,0.44
5.940423965454102,-64430.0,-406.752,0.4399
5.956636667251587,-64465.0,-420.1577,0.4398
5.976086854934692,-64505.0,-434.3447,0.4397
5.997124671936035,-64564.0,-448.7254,0.4397
6.005437135696411,-64608.0,-462.9718,0.4396
6.037989377975464,-64651.0,-477.4171,0.4395
6.072813034057617,-64693.0,-492.2041,0.4394
6.080534934997559,-64718.0,-506.3586,0.4393
6.100853204727173,-64648.0,-516.9864,0.4393
6.119080066680908,-64450.0,-516.6489,0.4393
6.139672517776489,-64193.0,-489.9875,0.4394
6.163290739059448,-63938.0,-415.8676,0.4399
6.173534154891968,-63742.0,-278.3947,0.4407
6.204272747039795,-63625.0,-80.5009,0.4418
6.208913564682007,-63579.0,150.6107,0.4432
6.2469329833984375,-63576.0,371.2287,0.4445
6.256632566452026,-63594.0,538.2109,0.4455
6.275893211364746,-63608.0,625.7715,0.446
6.31146502494812,-63633.0,633.4177,0.4461
6.325065851211548,-63703.0,581.6041,0.4458
6.346246719360352,-63773.0,498.536,0.4453
6.3615875244140625,-63838.0,406.9568,0.4447
6.366047143936157,-63878.0,318.8484,0.4442
6.387866258621216,-63891.0,238.3304,0.4437
6.40822696685791,-63885.0,167.4143,0.4433
6.427516460418701,-63872.0,109.3742,0.443
6.445462703704834,-63864.0,68.1884,0.4427
6.48419713973999,-63863.0,45.5394,0.4426
6.484835147857666,-63882.0,38.5014,0.4425
6.515573263168335,-63913.0,39.5944,0.4426
6.534520149230957,-63957.0,39.0994,0.4426
6.553570508956909,-63998.0,28.5124,0.4425
6.573508977890015,-64041.0,3.5437,0.4423
6.607645034790039,-64080.0,-34.7205,0.4421
6.608685731887817,-64105.0,-80.8986,0.4418
6.626858711242676,-64147.0,-127.8061,0.4416
6.645625114440918,-64189.0,-169.4905,0.4413
6.670253276824951,-64227.0,-203.5388,0.4411
6.701404333114624,-64265.0,-231.0721,0.4409
6.736684560775757,-64291.0,-254.7455,0.4408
6.7452123165130615,-64305.0,-276.3221,0.4407
6.750487565994263,-64325.0,-295.3723,0.4406
6.770221471786499,-64354.0,-310.0063,0.4405
6.786451816558838,-64379.0,-318.9618,0.4404
6.816620826721191,-64397.0,-322.9211,0.4404
6.836315155029297,-64419.0,-323.8296,0.4404
6.855985164642334,-64451.0,-323.552,0.4404
6.874972581863403,-64507.0,-323.643,0.4404
6.893893241882324,-64555.0,-326.0594,0.4404
6.9049835205078125,-64589.0,-333.087,0.4403
6.93505597114563,-64560.0,-345.0211,0.4403
6.954886436462402,-64392.0,-356.2011,0.4402
6.9761106967926025,-64131.0,-351.1155,0.4402
6.995319843292236,-63855.0,-305.3987,0.4405
7.0067572593688965,-63619.0,-195.9775,0.4412
7.041941404342651,-63465.0,-16.5634,0.4422
7.046900749206543,-63391.0,212.6897,0.4436
7.068488836288452,-63384.0,449.0724,0.445
7.088233470916748,-63404.0,643.318,0.4461
7.1068031787872314,-63417.0,759.0284,0.4468
7.126254081726074,-63449.0,785.686,0.447
7.145914316177368,-63500.0,738.822,0.4467
7.183807134628296,-63568.0,648.2707,0.4462
7.185245513916016,-63619.0,543.0321,0.4455
7.21718168258667,-63649.0,442.1016,0.4449
7.227277040481567,-63660.0,354.0777,0.4444
7.248623609542847,-63670.0,281.3999,0.444
7.264877080917358,-63670.0,224.0581,0.4437
7.285421848297119,-63666.0,180.9973,0.4434
7.304214000701904,-63684.0,150.1866,0.4432
7.325896978378296,-63707.0,128.0931,0.4431
7.345341205596924,-63748.0,109.4691,0.443
7.396090269088745,-63799.0,88.1119,0.4428
7.398245334625244,-63860.0,58.5595,0.4427
7.4178571701049805,-63917.0,17.7109,0.4424
7.441723108291626,-63977.0,-34.2064,0.4421
7.45137619972229,-64041.0,-93.9033,0.4418
7.471515417098999,-64101.0,-156.5268,0.4414
7.490486145019531,-64149.0,-217.4476,0.441
7.51337194442749,-64189.0,-273.0717,0.4407
7.545443058013916,-64216.0,-320.6758,0.4404
7.546542406082153,-64234.0,-358.146,0.4402
7.569040536880493,-64243.0,-383.9585,0.44
7.603365898132324,-64263.0,-397.5596,0.44
7.61035418510437,-64286.0,-400.097,0.4399
7.632328271865845,-64308.0,-394.8238,0.44
7.652865648269653,-64343.0,-386.3689,0.44
7.670731067657471,-64374.0,-379.2047,0.4401
7.692175388336182,-64403.0,-376.2924,0.4401
7.711320400238037,-64427.0,-378.2281,0.4401
7.741374969482422,-64454.0,-383.2853,0.44
7.746504068374634,-64461.0,-388.3893,0.44
7.765952110290527,-64360.0,-389.3671,0.44
7.803415775299072,-64124.0,-378.087,0.4401
7.817017555236816,-63814.0,-338.2089,0.4403
7.832449436187744,-63529.0,-247.1041,0.4409
7.852197170257568,-63315.0,-88.1769,0.4418
7.870287179946899,-63205.0,133.6021,0.4431
7.889402389526367,-63161.0,385.7342,0.4446
7.910480737686157,-63152.0,618.2446,0.446
7.929024934768677,-63154.0,784.5549,0.447
7.962357759475708,-63166.0,860.5126,0.4474
7.967467784881592,-63193.0,850.9615,0.4474
7.984914779663086,-63257.0,781.7179,0.447
8.024735450744629,-63333.0,683.8115,0.4464
8.025820016860962,-63392.0,580.0828,0.4458
8.049376010894775,-63427.0,481.1697,0.4452
8.068941354751587,-63455.0,389.8309,0.4446
8.084043025970459,-63462.0,307.0127,0.4441
8.115391731262207,-63469.0,234.7847,0.4437
8.137380599975586,-63473.0,175.8755,0.4434
8.147835731506348,-63500.0,131.4908,0.4431
8.17677354812622,-63547.0,99.1901,0.4429
8.186852216720581,-63591.0,72.491,0.4428
8.206844329833984,-63637.0,43.1879,0.4426
8.234670639038086,-63692.0,5.2352,0.4424
8.261467933654785,-63745.0,-42.8759,0.4421
8.275080442428589,-63801.0,-98.6107,0.4417
8.289427280426025,-63846.0,-157.3498,0.4414
8.309457540512085,-63902.0,-214.3698,0.441
8.339564800262451,-63948.0,-266.2544,0.4407
8.357514381408691,-63989.0,-311.4933,0.4405
8.382025241851807,-64047.0,-350.1471,0.4402
8.392210721969604,-64097.0,-383.3703,0.44
8.411408185958862,-64160.0,-413.0924,0.4399
8.443265676498413,-64208.0,-441.4129,0.4397
8.4545156955719,-64252.0,-469.5428,0.4395
8.481628179550171,-64304.0,-497.0234,0.4394
8.48499321937561,-64361.0,-522.2034,0.4392
8.505897998809814,-64418.0,-543.8271,0.4391
8.538887739181519,-64459.0,-561.9457,0.439
8.54428768157959,-64503.0,-577.1247,0.4389
8.569485187530518,-64544.0,-589.2929,0.4388
8.584027290344238,-64568.0,-597.5535,0.4388
8.604568719863892,-64463.0,-599.4858,0.4388
8.64077091217041,-64235.0,-587.5224,0.4388
8.651624202728271,-63956.0,-544.9056,0.4391
8.670873880386353,-63704.0,-449.3004,0.4397
8.69416856765747,-63547.0,-286.6157,0.4406
8.710349082946777,-63483.0,-66.0383,0.4419
8.725260019302368,-63484.0,176.2514,0.4434
8.74436640739441,-63502.0,389.6901,0.4446
8.766005039215088,-63506.0,531.3999,0.4455
8.795307874679565,-63512.0,584.5576,0.4458
8.816487312316895,-63549.0,562.147,0.4457
8.836428880691528,-63603.0,495.1744,0.4453
8.856381893157959,-63643.0,414.8658,0.4448
8.876060247421265,-63672.0,340.9658,0.4443
8.895012855529785,-63684.0,280.5692,0.444
8.92436695098877,-63697.0,233.1712,0.4437
8.925225496292114,-63694.0,196.036,0.4435
8.947373628616333,-63693.0,167.1045,0.4433
8.97536015510559,-63675.0,145.6419,0.4432
8.985228538513184,-63656.0,131.8092,0.4431
9.003342866897583,-63655.0,125.7729,0.4431
9.037683963775635,-63695.0,126.0979,0.4431
9.061823606491089,-63768.0,127.7412,0.4431
9.075573921203613,-63848.0,121.7925,0.443
9.094942331314087,-63908.0,98.7166,0.4429
9.110058069229126,-63923.0,54.2902,0.4426
9.129791975021362,-63909.0,-5.8031,0.4423
9.14975380897522,-63872.0,-66.5602,0.4419
9.170301675796509,-63821.0,-109.8719,0.4417
9.190304279327393,-63787.0,-122.6396,0.4416
9.209118604660034,-63801.0,-102.748,0.4417
9.232460021972656,-63835.0,-60.6367,0.442
9.243494272232056,-63882.0,-15.4887,0.4422
9.277435302734375,-63931.0,13.0728,0.4424
9.284538507461548,-63984.0,13.2893,0.4424
9.303940773010254,-64034.0,-15.1308,0.4422
9.32434344291687,-64104.0,-63.3981,0.4419
9.35589075088501,-64189.0,-119.8154,0.4416
9.385894536972046,-64301.0,-176.1465,0.4413
9.39585828781128,-64370.0,-230.4136,0.441
9.425227403640747,-64321.0,-283.5229,0.4406
9.437201023101807,-64181.0,-330.7517,0.4404
9.458147287368774,-64013.0,-355.9317,0.4402
9.464415550231934,-63864.0,-336.5434,0.4403
9.483492851257324,-63780.0,-258.1262,0.4408
9.505692481994629,-63772.0,-127.2662,0.4416
9.526554822921753,-63807.0,26.5888,0.4425
9.547116041183472,-63837.0,162.6261,0.4433
9.568136215209961,-63840.0,247.3513,0.4438
9.589040517807007,-63861.0,269.3906,0.4439
9.609535455703735,-63931.0,240.8408,0.4438
9.624505281448364,-64027.0,184.9941,0.4434
9.643682956695557,-64094.0,121.2123,0.443
9.664828062057495,-64139.0,58.6525,0.4427
9.69019341468811,-64173.0,-0.1098,0.4423
9.703881025314331,-64187.0,-53.1562,0.442
9.725119829177856,-64193.0,-96.7882,0.4417
9.751531600952148,-64228.0,-126.8816,0.4416
9.764503717422485,-64293.0,-142.3764,0.4415
9.804734230041504,-64367.0,-148.1789,0.4414
9.805485963821411,-64423.0,-154.0183,0.4414
9.825568914413452,-64481.0,-169.1063,0.4413
9.85240626335144,-64533.0,-196.7867,0.4412
9.871062517166138,-64598.0,-233.6157,0.4409
9.885509967803955,-64676.0,-272.871,0.4407
9.906687021255493,-64741.0,-309.2205,0.4405
9.925931930541992,-64787.0,-340.6935,0.4403
9.943458318710327,-64804.0,-366.9015,0.4401
9.96647334098816,-64813.0,-386.1512,0.44
10.010355234146118,-64817.0,-394.6774,0.44
10.012248992919922,-64845.0,-388.8992,0.44
10.027254343032837,-64923.0,-369.2327,0.4401
10.066304683685303,-65014.0,-342.6872,0.4403
10.068346738815308,-65090.0,-321.4031,0.4404
10.082576990127563,-65140.0,-316.3643,0.4404
10.103199005126953,-65218.0,-330.6046,0.4404
10.124370813369751,-65305.0,-358.3927,0.4402
10.145978450775146,-65386.0,-390.5844,0.44
10.167678356170654,-65438.0,-420.0475,0.4398
10.200713872909546,-65464.0,-442.6202,0.4397
10.203665733337402,-65413.0,-454.4554,0.4396
10.22473430633545,-65286.0,-448.6922,0.4397
10.255469799041748,-65110.0,-413.9129,0.4399
10.274966955184937,-64954.0,-337.0655,0.4403
10.283859491348267,-64828.0,-211.2162,0.4411
10.319339752197266,-64740.0,-43.3457,0.4421
10.330930948257446,-64674.0,144.8161,0.4432
10.348467350006104,-64622.0,324.4633,0.4442
10.374488353729248,-64589.0,471.0933,0.4451
10.407390117645264,-64585.0,572.4846,0.4457
10.408443450927734,-64640.0,628.9948,0.4461
10.428831577301025,-64728.0,647.4642,0.4462
10.444669008255005,-64847.0,634.1551,0.4461
10.463270425796509,-64958.0,592.0221,0.4458
10.483867883682251,-65050.0,523.1766,0.4454
10.504857540130615,-65129.0,433.2577,0.4449
10.532562494277954,-65221.0,333.0562,0.4443
10.54685091972351,-65334.0,235.0954,0.4437
10.568361043930054,-65461.0,147.6724,0.4432
10.585260391235352,-65594.0,71.3281,0.4427
10.606513738632202,-65719.0,0.4,0.4423
10.626536846160889,-65785.0,-71.365,0.4419
10.66013479232788,-65831.0,-144.6649,0.4415
10.666186332702637,-65833.0,-211.9236,0.4411
10.686392307281494,-65781.0,-259.8196,0.4408
10.704705238342285,-65696.0,-274.5865,0.4407
10.728494882583618,-65581.0,-246.6229,0.4409
10.743508338928223,-65466.0,-173.4558,0.4413
10.765834093093872,-65382.0,-61.0159,0.442
10.787269592285156,-65342.0,76.5193,0.4428
10.802848815917969,-65321.0,218.8636,0.4436
10.822335481643677,-65352.0,344.2248,0.4444
10.844891548156738,-65410.0,434.9415,0.4449
10.872491359710693,-65495.0,481.184,0.4452
10.891891717910767,-65578.0,481.9494,0.4452
10.911218404769897,-65613.0,444.5173,0.445
10.931306838989258,-65611.0,383.5396,0.4446
10.966245889663696,-65607.0,318.8407,0.4442
10.96757984161377,-65613.0,269.7906,0.4439
10.995872020721436,-65654.0,247.6054,0.4438
11.006529808044434,-65718.0,250.3972,0.4438
11.042002439498901,-65735.0,265.0819,0.4439
11.0428786277771,-65704.0,276.4409,0.444
11.07616662979126,-65662.0,277.9475,0.444
11.087011098861694,-65616.0,275.4881,0.444
11.105224609375,-65602.0,281.3138,0.444
11.124500751495361,-65590.0,303.8635,0.4441
11.144306898117065,-65579.0,341.809,0.4444
11.181238174438477,-65564.0,385.9008,0.4446
11.190863132476807,-65552.0,425.4391,0.4448
11.210202932357788,-65545.0,453.8316,0.445
11.233536720275879,-65572.0,469.8381,0.4451
11.242777347564697,-65627.0,474.8594,0.4451
11.28158688545227,-65682.0,469.2007,0.4451
11.287184476852417,-65681.0,451.565,0.445
11.308228254318237,-65651.0,423.0034,0.4448
11.327914476394653,-65631.0,390.7225,0.4446
11.349531650543213,-65625.0,365.9746,0.4445
11.366661071777344,-65589.0,357.3102,0.4444
11.391794919967651,-65557.0,366.2935,0.4445
11.419243335723877,-65577.0,388.2473,0.4446
11.425517320632935,-65637.0,414.2148,0.4448
11.446165323257446,-65670.0,432.4073,0.4449
11.466437578201294,-65683.0,432.2812,0.4449
11.503681659698486,-65700.0,410.5463,0.4448
11.504316329956055,-65718.0,373.2346,0.4445
11.52390456199646,-65740.0,331.4161,0.4443
11.54430890083313,-65750.0,294.7476,0.4441
11.564195156097412,-65746.0,267.9452,0.4439
11.602493286132812,-65755.0,251.2514,0.4438
11.604589462280273,-65769.0,242.2938,0.4438
11.652086734771729,-65789.0,237.3102,0.4437
11.667654514312744,-65816.0,231.9969,0.4437
11.683136224746704,-65839.0,222.6388,0.4436
11.689403295516968,-65886.0,207.0826,0.4436
11.704837083816528,-65936.0,184.7234,0.4434
11.727701187133789,-65981.0,155.7175,0.4432
11.742733716964722,-66016.0,120.871,0.443
11.778890609741211,-66040.0,82.4088,0.4428
11.786396265029907,-66030.0,44.5221,0.4426
11.806180953979492,-65999.0,13.221,0.4424
11.825484275817871,-65955.0,-4.6606,0.4423
11.845736265182495,-65911.0,-3.5754,0.4423
11.865804433822632,-65865.0,18.2056,0.4424
11.88165807723999,-65817.0,57.4149,0.4427
11.906461954116821,-65766.0,107.1023,0.443
11.934886455535889,-65739.0,159.3888,0.4433
11.956275701522827,-65726.0,207.4527,0.4436
11.96142578125,-65718.0,245.9644,0.4438
11.995867729187012,-65752.0,271.021,0.4439
12.02274775505066,-65794.0,279.8707,0.444
12.023744344711304,-65828.0,270.7322,0.4439
12.06686782836914,-65861.0,243.8489,0.4438
12.073816776275635,-65901.0,202.7256,0.4435
12.093100547790527,-65949.0,153.4567,0.4432
12.108115434646606,-65976.0,102.226,0.4429
12.127442121505737,-65985.0,53.7364,0.4426
12.150698184967041,-65984.0,11.6481,0.4424
12.165083169937134,-66001.0,-20.9129,0.4422
12.199182987213135,-66030.0,-42.558,0.4421
12.206335067749023,-66052.0,-55.3736,0.442
12.221932888031006,-66064.0,-64.3334,0.4419
12.241830110549927,-66053.0,-74.01,0.4419
12.262052774429321,-66055.0,-85.4747,0.4418
12.281555414199829,-66051.0,-96.2014,0.4418
12.303694725036621,-66039.0,-102.6571,0.4417
12.331820011138916,-66028.0,-102.7302,0.4417
12.350442886352539,-66040.0,-96.5922,0.4417
12.370974779129028,-66047.0,-86.8153,0.4418
12.392354249954224,-66060.0,-77.6843,0.4419
12.412142753601074,-66074.0,-73.3496,0.4419
12.431943893432617,-66092.0,-76.0731,0.4419
12.465195655822754,-66099.0,-85.5839,0.4418
12.469864130020142,-66114.0,-99.602,0.4417
12.487662315368652,-66127.0,-114.9578,0.4416
12.51042914390564,-66141.0,-129.0664,0.4416
12.53069543838501,-66153.0,-140.7781,0.4415
12.545512437820435,-66165.0,-150.2683,0.4414
12.564662218093872,-66167.0,-158.2366,0.4414
12.588329315185547,-66132.0,-164.7501,0.4413
12.60297703742981,-66062.0,-167.644,0.4413
12.621471643447876,-65975.0,-161.5377,0.4414
12.644457340240479,-65904.0,-139.4348,0.4415
12.66524887084961,-65859.0,-97.2567,0.4417
12.681543827056885,-65819.0,-38.1557,0.4421
12.702802181243896,-65809.0,27.2649,0.4425
12.720953941345215,-65798.0,85.2407,0.4428
12.741210460662842,-65787.0,124.6279,0.4431
12.761398077011108,-65779.0,141.0272,0.4432
12.781874656677246,-65773.0,137.5054,0.4431
12.801026344299316,-65789.0,121.5587,0.443
12.840306043624878,-65810.0,100.4428,0.4429
12.849781036376953,-65822.0,77.8575,0.4428
12.87065863609314,-65829.0,54.1181,0.4426
12.89007306098938,-65835.0,28.6949,0.4425
12.90713906288147,-65836.0,2.2026,0.4423
12.927820444107056,-65835.0,-23.4326,0.4422
12.960042476654053,-65835.0,-45.9847,0.442
12.966022491455078,-65828.0,-63.9866,0.4419
12.9810631275177,-65834.0,-77.2706,0.4419
13.00138521194458,-65843.0,-87.0407,0.4418
13.022898435592651,-65861.0,-95.7075,0.4418
13.043206691741943,-65884.0,-106.2534,0.4417
13.077931642532349,-65914.0,-121.3655,0.4416
13.082456111907959,-65926.0,-142.4604,0.4415
13.104146957397461,-65946.0,-168.8724,0.4413
13.13798451423645,-65960.0,-197.8769,0.4411
13.144164562225342,-65979.0,-225.9149,0.441
13.163514375686646,-66003.0,-250.3583,0.4408
13.20000696182251,-66024.0,-270.6034,0.4407
13.201342821121216,-66036.0,-287.7967,0.4406
13.229875087738037,-66044.0,-303.3481,0.4405
13.25099229812622,-66048.0,-317.5277,0.4404
13.26503586769104,-66068.0,-329.4148,0.4404
13.290033102035522,-66086.0,-338.2071,0.4403
13.305462837219238,-66107.0,-344.4728,0.4403
13.33677077293396,-66118.0,-349.9904,0.4402
13.342524528503418,-66115.0,-356.1863,0.4402
13.362586498260498,-66057.0,-362.1774,0.4402
13.383893251419067,-65974.0,-363.1809,0.4402
13.408818006515503,-65890.0,-350.9493,0.4402
13.422999858856201,-65814.0,-317.5758,0.4404
13.460945129394531,-65759.0,-260.8645,0.4408
13.462063074111938,-65713.0,-187.0874,0.4412
13.49023962020874,-65683.0,-108.9146,0.4417
13.504092454910278,-65655.0,-40.1254,0.4421
13.528196811676025,-65634.0,9.7507,0.4424
13.547744035720825,-65619.0,38.0475,0.4425
13.561357736587524,-65617.0,48.0032,0.4426
13.580525398254395,-65612.0,45.556,0.4426
13.611315965652466,-65622.0,36.1797,0.4425
13.63524317741394,-65621.0,23.2115,0.4425
13.649246454238892,-65603.0,8.1554,0.4424
13.66364860534668,-65590.0,-7.6902,0.4423
13.688207626342773,-65578.0,-22.2182,0.4422
13.704007387161255,-65578.0,-33.4016,0.4421
13.722214221954346,-65574.0,-40.8594,0.4421
13.74565076828003,-65568.0,-46.227,0.442
13.759953022003174,-65563.0,-51.8545,0.442
13.791391372680664,-65570.0,-59.3645,0.442
13.81156849861145,-65586.0,-69.4616,0.4419
13.831138372421265,-65618.0,-82.779,0.4418
13.85201120376587,-65654.0,-100.6361,0.4417
13.874064683914185,-65689.0,-124.7637,0.4416
13.898681163787842,-65736.0,-156.1609,0.4414
13.908141136169434,-65784.0,-194.3153,0.4412
13.927246570587158,-65826.0,-237.4308,0.4409
13.958820104598999,-65888.0,-283.0537,0.4406
13.960342645645142,-65940.0,-328.9795,0.4404
13.990446090698242,-65990.0,-373.8899,0.4401
14.009426593780518,-66045.0,-417.0757,0.4398
14.023476600646973,-66076.0,-457.7735,0.4396
14.051454305648804,-66114.0,-494.6127,0.4394
14.075460195541382,-66154.0,-525.7164,0.4392
14.094164848327637,-66185.0,-549.6679,0.4391
14.11412525177002,-66216.0,-566.3517,0.439
14.120405912399292,-66239.0,-576.6858,0.4389
14.155931949615479,-66217.0,-581.4518,0.4389
14.161305904388428,-66166.0,-579.4348,0.4389
14.181545972824097,-66124.0,-566.3528,0.439
14.214328050613403,-66092.0,-537.0065,0.4391
14.248117923736572,-66090.0,-490.0106,0.4394
14.254687309265137,-66112.0,-431.0972,0.4398
14.274919033050537,-66132.0,-372.0608,0.4401
14.29230785369873,-66149.0,-325.5585,0.4404
14.311941146850586,-66164.0,-298.9845,0.4405
14.344151258468628,-66186.0,-291.6029,0.4406
14.345807075500488,-66209.0,-296.5366,0.4406
14.37103796005249,-66241.0,-305.488,0.4405
14.391523122787476,-66274.0,-312.7666,0.4405
14.4057457447052,-66308.0,-316.7922,0.4404
14.424812316894531,-66327.0,-318.8828,0.4404
14.450506448745728,-66339.0,-320.6809,0.4404
14.460213422775269,-66350.0,-322.0201,0.4404
14.491424322128296,-66372.0,-320.9755,0.4404
14.504926443099976,-66395.0,-315.7565,0.4404
14.523280620574951,-66423.0,-306.5095,0.4405
14.545014381408691,-66448.0,-295.4197,0.4406
14.569127321243286,-66479.0,-285.316,0.4406
14.583354949951172,-66506.0,-278.1389,0.4407
14.599745035171509,-66531.0,-274.2558,0.4407
14.622109651565552,-66557.0,-272.5227,0.4407
14.653875350952148,-66590.0,-271.1037,0.4407
14.667009353637695,-66609.0,-268.4881,0.4407
14.681283712387085,-66634.0,-263.9649,0.4408
14.700863599777222,-66662.0,-257.3928,0.4408
14.738763093948364,-66682.0,-249.0155,0.4408
14.748896837234497,-66703.0,-239.3148,0.4409
14.767516136169434,-66727.0,-228.6234,0.441
14.787292003631592,-66753.0,-217.1063,0.441
14.805699348449707,-66809.0,-205.3148,0.4411
14.827399015426636,-66909.0,-195.3472,0.4412
14.841639280319214,-67079.0,-192.5725,0.4412
14.8656587600708,-66723.0,-202.1018,0.4411
14.880304336547852,-59125.0,-155.3369,0.4414
14.911516904830933,-49104.0,297.0994,0.4441
14.932892799377441,-42911.0,1875.427,0.4535
14.942378520965576,-41412.0,5235.5293,0.4734
14.966871500015259,-44096.0,10211.3994,0.5029
14.982155323028564,-51245.0,15485.8203,0.5342
15.026174783706665,-63236.0,19021.4258,0.5552
15.034495115280151,-64119.0,18993.9121,0.5551
15.059204578399658,-63481.0,14862.834,0.5305
15.060136556625366,-63633.0,7928.3027,0.4894
15.079728603363037,-63927.0,688.7012,0.4464
15.112534761428833,-64216.0,-4598.4604,0.415
15.121110677719116,-64456.0,-6970.6787,0.4009
15.140138387680054,-64666.0,-6847.0107,0.4017
15.187671661376953,-64855.0,-5420.4102,0.4101
15.197548389434814,-65062.0,-3904.4619,0.4191
15.202344179153442,-65352.0,-3038.6465,0.4243
15.220398664474487,-65666.0,-2978.481,0.4246
15.239732027053833,-65906.0,-3471.4932,0.4217
15.260383367538452,-66081.0,-4129.1777,0.4178
15.280079364776611,-66186.0,-4640.8696,0.4148
15.303242921829224,-66280.0,-4867.0142,0.4134
15.33620309829712,-66353.0,-4825.9653,0.4137
15.340410709381104,-66405.0,-4623.8232,0.4149
15.363916397094727,-66455.0,-4377.5518,0.4163
15.385724067687988,-66501.0,-4164.4971,0.4176
15.40979790687561,-66548.0,-4008.8159,0.4185
15.423664093017578,-66604.0,-3895.5945,0.4192
15.457201957702637,-66674.0,-3795.6201,0.4198
15.463135957717896,-66721.0,-3685.8564,0.4204
15.484041452407837,-66759.0,-3557.7039,0.4212
15.504668235778809,-66782.0,-3414.0376,0.4221
15.532366752624512,-66795.0,-3261.8149,0.423
15.545078039169312,-66814.0,-3106.4329,0.4239
15.564586400985718,-66838.0,-2950.1882,0.4248
15.597793102264404,-66870.0,-2793.8816,0.4257
15.617696523666382,-66885.0,-2638.6619,0.4267
15.62466549873352,-66897.0,-2486.1189,0.4276
15.663947582244873,-66923.0,-2337.1372,0.4284
15.674102783203125,-66952.0,-2191.7339,0.4293
15.69406509399414,-66981.0,-2050.1174,0.4302
15.700676441192627,-66996.0,-1913.0583,0.431
15.72065782546997,-67009.0,-1780.953,0.4317
15.746246337890625,-67020.0,-1652.8223,0.4325
15.770807981491089,-67032.0,-1526.6537,0.4333
15.788210391998291,-67032.0,-1400.5891,0.434
15.805493593215942,-66989.0,-1273.3525,0.4348
15.827146530151367,-66765.0,-1141.7312,0.4355
15.844531059265137,-66420.0,-994.5242,0.4364
15.860621690750122,-66194.0,-810.2645,0.4375
15.88340163230896,-66095.0,-569.5884,0.4389
15.92106294631958,-66076.0,-277.0327,0.4407
15.930440664291382,-66092.0,30.4116,0.4425
15.948383808135986,-66115.0,299.3885,0.4441
15.968327045440674,-66140.0,487.8053,0.4452
15.987926006317139,-66188.0,583.488,0.4458
16.004555463790894,-66241.0,603.924,0.4459
16.024795055389404,-66334.0,581.496,0.4458
16.04356098175049,-66445.0,545.7512,0.4456
16.06251287460327,-66508.0,512.7485,0.4454
16.077860116958618,-66563.0,485.9001,0.4452
16.105970859527588,-66586.0,463.9898,0.4451
16.124611139297485,-66587.0,448.113,0.445
16.152759075164795,-66585.0,443.1725,0.445
16.159658908843994,-66594.0,454.9173,0.445
16.191351175308228,-66612.0,485.4144,0.4452
16.209769248962402,-66675.0,530.1998,0.4455
16.229385375976562,-66717.0,578.934,0.4458
16.24843406677246,-66759.0,619.7296,0.446
16.270699977874756,-66798.0,644.9537,0.4461
16.28693127632141,-66841.0,654.4921,0.4462
16.306405544281006,-66900.0,653.9583,0.4462
16.327232599258423,-66949.0,650.0912,0.4462
16.346187591552734,-66987.0,647.3408,0.4462
16.364662885665894,-67003.0,647.6823,0.4462
16.38537359237671,-67022.0,652.4482,0.4462
16.405508995056152,-67051.0,663.2107,0.4463
16.421486377716064,-67073.0,680.7234,0.4464
16.439282178878784,-67101.0,703.7148,0.4465
16.477867603302002,-67112.0,729.3383,0.4467
16.483493089675903,-67133.0,754.8704,0.4468
16.52539348602295,-67131.0,779.1142,0.4469
16.526117086410522,-67144.0,802.6628,0.4471
16.542993307113647,-67166.0,826.9187,0.4472
16.56281614303589,-67191.0,852.2803,0.4474
16.58206081390381,-67201.0,877.2611,0.4475
16.60300374031067,-67125.0,900.423,0.4477
16.62489891052246,-66914.0,925.4319,0.4478
16.64490270614624,-66687.0,965.941,0.4481
16.679937839508057,-66554.0,1042.1008,0.4485
16.683700799942017,-66523.0,1165.5125,0.4492
16.7008113861084,-66535.0,1323.9222,0.4502
16.72131633758545,-66568.0,1481.649,0.4511
16.740562915802002,-66622.0,1597.1746,0.4518
16.762121200561523,-66665.0,1643.865,0.4521
16.795719623565674,-66703.0,1620.2148,0.4519
16.80537247657776,-66758.0,1546.2743,0.4515
16.823507070541382,-66817.0,1450.9222,0.4509
16.84333324432373,-66880.0,1358.1165,0.4504
16.861530780792236,-66923.0,1279.5602,0.4499
16.88289213180542,-66942.0,1216.0377,0.4495
16.901177883148193,-66946.0,1163.804,0.4492
16.930238246917725,-66954.0,1120.2992,0.449
16.949246883392334,-66957.0,1085.5422,0.4488
16.970276832580566,-66973.0,1060.1229,0.4486
16.983551263809204,-66982.0,1042.9333,0.4485
17.017554998397827,-66996.0,1030.6742,0.4484
17.02089548110962,-67009.0,1019.2105,0.4484
17.05403447151184,-67032.0,1005.2286,0.4483
17.063655376434326,-67049.0,987.0138,0.4482
17.084548711776733,-67067.0,964.3825,0.448
17.112789154052734,-67097.0,938.2938,0.4479
17.12817668914795,-67118.0,910.0473,0.4477
17.147239208221436,-67131.0,880.6683,0.4475
17.169470071792603,-67150.0,851.1115,0.4474
17.181642532348633,-67164.0,822.5284,0.4472
17.211678504943848,-67174.0,795.9324,0.447
17.234431743621826,-67183.0,771.9007,0.4469
17.242552995681763,-67183.0,750.6752,0.4468
17.264044761657715,-67197.0,732.2388,0.4467
17.292430639266968,-67203.0,716.1948,0.4466
17.306081295013428,-67212.0,701.5582,0.4465
17.326540231704712,-67233.0,686.9366,0.4464
17.34753131866455,-67243.0,670.9265,0.4463
17.36435055732727,-67232.0,652.6642,0.4462
17.383331537246704,-67152.0,633.5074,0.4461
17.41291093826294,-66943.0,620.041,0.446
17.42615556716919,-66698.0,626.7232,0.446
17.44170045852661,-66572.0,672.2662,0.4463
17.463399410247803,-66522.0,766.1274,0.4469
17.493449687957764,-66497.0,894.9109,0.4476
17.505133867263794,-66518.0,1023.9628,0.4484
17.5262553691864,-66545.0,1114.3185,0.4489
17.54737091064453,-66577.0,1141.1016,0.4491
17.589714765548706,-66599.0,1102.2872,0.4489
17.598661422729492,-66628.0,1015.6221,0.4483
17.60364270210266,-66672.0,907.5376,0.4477
17.63398790359497,-66717.0,800.7819,0.4471
17.655856370925903,-66743.0,707.0904,0.4465
17.664862871170044,-66752.0,627.7693,0.446
17.685051679611206,-66752.0,559.4075,0.4456
17.70897388458252,-66742.0,499.2045,0.4453
17.7274067401886,-66739.0,446.7806,0.445
17.744853019714355,-66740.0,402.8367,0.4447
17.764363288879395,-66749.0,366.8632,0.4445
17.788928747177124,-66767.0,336.0171,0.4443
17.804349422454834,-66788.0,305.7585,0.4441
17.82411766052246,-66798.0,271.6895,0.4439
17.857520580291748,-66812.0,231.664,0.4437
17.86432719230652,-66831.0,186.6228,0.4434
17.885090112686157,-66841.0,139.5092,0.4431
17.904613494873047,-66859.0,93.4098,0.4429
17.936190366744995,-66880.0,50.2388,0.4426
17.954838037490845,-66904.0,10.1916,0.4424
17.975398778915405,-66919.0,-27.96,0.4422
18.008812427520752,-66936.0,-65.6441,0.4419
18.01699686050415,-66950.0,-103.3403,0.4417
18.02483558654785,-66955.0,-140.2609,0.4415
18.052215814590454,-66972.0,-174.8996,0.4413
18.07420039176941,-66985.0,-206.0076,0.4411
18.112385988235474,-66994.0,-233.3993,0.4409
18.11341428756714,-67012.0,-257.9391,0.4408
18.126199960708618,-67041.0,-281.0262,0.4407
18.145493984222412,-67053.0,-304.3109,0.4405
18.1693434715271,-66962.0,-328.1903,0.4404
18.18723177909851,-66755.0,-347.4044,0.4403
18.207523107528687,-66604.0,-347.5043,0.4403
18.232396602630615,-66514.0,-310.8071,0.4405
18.244328498840332,-66469.0,-231.184,0.4409
18.267728328704834,-66465.0,-123.6779,0.4416
18.28841996192932,-66477.0,-19.1073,0.4422
18.308587312698364,-66494.0,51.3337,0.4426
18.327125549316406,-66518.0,70.25,0.4427
18.34867548942566,-66540.0,39.1899,0.4426
18.37086772918701,-66576.0,-25.9832,0.4422
18.407204389572144,-66618.0,-104.9957,0.4417
18.431125164031982,-66662.0,-182.203,0.4412
18.43224310874939,-66681.0,-250.4991,0.4408
18.45194935798645,-66677.0,-309.2074,0.4405
18.493345737457275,-66674.0,-359.2245,0.4402
18.494475603103638,-66660.0,-400.0262,0.4399
18.521090984344482,-66655.0,-430.1046,0.4398
18.526031732559204,-66663.0,-449.1528,0.4397
18.558807849884033,-66665.0,-459.6524,0.4396
18.600539684295654,-66684.0,-466.5039,0.4396
18.616966724395752,-66700.0,-475.0945,0.4395
18.635311126708984,-66715.0,-489.2542,0.4394
18.63642454147339,-66749.0,-510.2285,0.4393
18.657782077789307,-66779.0,-537.0526,0.4391
18.693156719207764,-66811.0,-567.94,0.439
18.694191217422485,-66829.0,-601.0413,0.4388
18.730517864227295,-66849.0,-634.2343,0.4386
18.73161506652832,-66867.0,-665.0283,0.4384
18.77307939529419,-66879.0,-691.1679,0.4382
18.784380435943604,-66894.0,-711.369,0.4381
18.80719828605652,-66911.0,-725.645,0.438
18.83881163597107,-66929.0,-735.2077,0.438
18.86038064956665,-66949.0,-742.0317,0.4379
18.86219334602356,-66960.0,-748.0274,0.4379
18.872498273849487,-66965.0,-754.1464,0.4378
18.902904272079468,-66933.0,-759.4614,0.4378
18.94764256477356,-66786.0,-759.8173,0.4378
18.95354199409485,-66601.0,-745.577,0.4379
18.96059536933899,-66470.0,-702.3999,0.4382
18.98910641670227,-66394.0,-619.7781,0.4386
18.99026370048523,-66354.0,-502.222,0.4393
19.02099847793579,-66345.0,-371.6927,0.4401
19.04307746887207,-66349.0,-258.1391,0.4408
19.04745078086853,-66366.0,-185.5921,0.4412
19.080276012420654,-66376.0,-162.9135,0.4414
19.109294176101685,-66394.0,-182.9339,0.4412
19.126907110214233,-66438.0,-228.791,0.441
19.136663913726807,-66464.0,-283.1003,0.4406
19.170343160629272,-66494.0,-334.5175,0.4403
19.190868139266968,-66500.0,-378.6367,0.4401
19.202921867370605,-66490.0,-414.9569,0.4399
19.254454612731934,-66484.0,-443.3325,0.4397
19.26482391357422,-66470.0,-462.7406,0.4396
19.26550269126892,-66476.0,-472.4185,0.4395
19.28747248649597,-66484.0,-473.6493,0.4395
19.30096173286438,-66499.0,-470.3187,0.4395
19.32841205596924,-66516.0,-467.6949,0.4395
19.348979711532593,-66532.0,-470.1252,0.4395
19.356500387191772,-66570.0,-479.4995,0.4395
19.392889261245728,-66596.0,-495.4216,0.4394
19.41812515258789,-66615.0,-516.1587,0.4393
19.420063257217407,-66630.0,-539.0787,0.4391
19.433481216430664,-66652.0,-560.8669,0.439
19.471874475479126,-66670.0,-578.6199,0.4389
19.476094007492065,-66700.0,-591.1262,0.4388
19.505869150161743,-66723.0,-599.2397,0.4388
19.530569553375244,-66748.0,-605.1583,0.4387
19.531538248062134,-66761.0,-610.8557,0.4387
19.571165800094604,-66777.0,-616.8142,0.4387
19.592013359069824,-66793.0,-621.8666,0.4386
19.602493047714233,-66804.0,-624.2354,0.4386
19.624812602996826,-66818.0,-622.7087,0.4386
19.664944887161255,-66824.0,-617.0759,0.4387
19.696722984313965,-66735.0,-607.1052,0.4387
19.729212522506714,-66540.0,-588.8588,0.4388
19.75035262107849,-66393.0,-551.1218,0.439
19.761441946029663,-66282.0,-479.6716,0.4395
19.763100624084473,-66215.0,-369.4189,0.4401
19.79550313949585,-66189.0,-232.8242,0.4409
19.796982049942017,-66184.0,-96.383,0.4417
19.828895330429077,-66193.0,11.5158,0.4424
19.829808473587036,-66196.0,72.9464,0.4428
19.86224889755249,-66199.0,86.3852,0.4428
19.88415503501892,-66210.0,64.4971,0.4427
19.895411252975464,-66234.0,26.022,0.4425
19.896366357803345,-66266.0,-13.3027,0.4422
19.922773122787476,-66290.0,-45.9831,0.442
19.939500093460083,-66304.0,-72.1447,0.4419
19.95148754119873,-66304.0,-95.0073,0.4418
19.973373651504517,-66299.0,-116.3811,0.4416
19.990524291992188,-66293.0,-135.0312,0.4415
20.008952140808105,-66298.0,-148.1789,0.4414
20.03007221221924,-66323.0,-154.3733,0.4414
20.052165508270264,-66340.0,-155.4909,0.4414
20.07001042366028,-66355.0,-156.0431,0.4414
20.10774564743042,-66381.0,-160.3945,0.4414
20.122234344482422,-66407.0,-170.4974,0.4413
20.135765314102173,-66422.0,-185.731,0.4412
20.167059421539307,-66454.0,-203.8082,0.4411
20.1735897064209,-66472.0,-222.0046,0.441
20.19248867034912,-66492.0,-238.2562,0.4409
20.221408367156982,-66503.0,-251.4015,0.4408
20.23029923439026,-66521.0,-260.8406,0.4408
20.25584840774536,-66535.0,-266.3951,0.4407
20.27530550956726,-66543.0,-268.3629,0.4407
20.295830249786377,-66545.0,-267.2683,0.4407
20.32310152053833,-66552.0,-263.3189,0.4408
20.332268238067627,-66564.0,-256.4728,0.4408
20.352432250976562,-66569.0,-247.0841,0.4409
20.37030029296875,-66572.0,-236.0714,0.4409
20.3904230594635,-66562.0,-224.2234,0.441
20.423752307891846,-66469.0,-210.6471,0.4411
20.432024002075195,-66300.0,-190.1678,0.4412
20.452221155166626,-66163.0,-151.7431,0.4414
20.47724938392639,-66067.0,-83.2501,0.4418
20.495031595230103,-66008.0,18.2923,0.4424
20.511968851089478,-65984.0,140.3745,0.4432
20.532236337661743,-65984.0,258.9838,0.4439
20.551350116729736,-65987.0,349.5177,0.4444
20.5724356174469,-65998.0,397.2743,0.4447
20.598525285720825,-66003.0,402.0543,0.4447
20.62202215194702,-66012.0,375.6683,0.4446
20.63111114501953,-66050.0,334.6932,0.4443
20.652536153793335,-66074.0,292.6479,0.4441
20.670064210891724,-66082.0,255.8897,0.4438
20.70498776435852,-66072.0,225.1825,0.4437
20.71918487548828,-66060.0,200.0216,0.4435
20.737186193466187,-66049.0,181.1315,0.4434
20.76801347732544,-66044.0,169.8219,0.4433
20.77345299720764,-66050.0,165.9656,0.4433
20.790727853775024,-66057.0,166.9519,0.4433
20.82204508781433,-66083.0,168.2894,0.4433
20.844274282455444,-66105.0,165.2227,0.4433
20.864054679870605,-66138.0,154.3608,0.4432
20.890103340148926,-66171.0,134.6433,0.4431
20.90669083595276,-66204.0,107.3208,0.443
20.928321361541748,-66238.0,75.1777,0.4428
20.949318647384644,-66264.0,41.5015,0.4426
20.96519923210144,-66283.0,9.3672,0.4424
20.97621512413025,-66293.0,-18.5936,0.4422
20.991786003112793,-66320.0,-40.4001,0.4421
21.012083053588867,-66329.0,-55.302,0.442
21.03277039527893,-66353.0,-64.2013,0.4419
21.05543613433838,-66378.0,-69.2196,0.4419
21.077050924301147,-66408.0,-72.9777,0.4419
21.10702085494995,-66434.0,-77.9525,0.4419
21.113403797149658,-66452.0,-85.52,0.4418
21.13196039199829,-66452.0,-95.1171,0.4418
21.17430806159973,-66370.0,-103.334,0.4417
21.175105571746826,-66222.0,-102.3864,0.4417
21.220496654510498,-66102.0,-79.9401,0.4418
21.23479652404785,-66003.0,-24.2768,0.4422
21.249942541122437,-65943.0,66.6925,0.4427
21.271103858947754,-65913.0,180.6316,0.4434
21.27751898765564,-65910.0,294.6454,0.4441
21.3165225982666,-65894.0,385.123,0.4446
21.3304500579834,-65892.0,437.6392,0.4449
21.346869230270386,-65902.0,451.4306,0.445
21.352054357528687,-65924.0,436.4153,0.4449
21.37228775024414,-65968.0,405.7622,0.4447
21.408718585968018,-65997.0,369.3047,0.4445
21.429965019226074,-66015.0,331.5536,0.4443
21.43852972984314,-66015.0,294.0242,0.4441
21.46796989440918,-66012.0,258.5721,0.4439
21.500203847885132,-66010.0,228.4377,0.4437
21.526468992233276,-66014.0,206.6995,0.4435
21.527241230010986,-66034.0,193.954,0.4435
21.58354115486145,-66054.0,187.3108,0.4434
21.605090379714966,-66082.0,181.4448,0.4434
21.615955591201782,-66124.0,170.976,0.4433
21.64553999900818,-66155.0,152.4931,0.4432
21.66564917564392,-66192.0,125.4485,0.4431
21.69379186630249,-66218.0,92.119,0.4429
21.695732831954956,-66254.0,56.5624,0.4427
21.703590869903564,-66275.0,22.9277,0.4425
21.731208324432373,-66289.0,-5.7871,0.4423
21.751457929611206,-66308.0,-27.9785,0.4422
21.762149333953857,-66337.0,-43.332,0.4421
21.78859233856201,-66355.0,-53.075,0.442
21.794896364212036,-66371.0,-59.5504,0.442
21.81908655166626,-66385.0,-64.8346,0.4419
21.84831714630127,-66411.0,-69.7351,0.4419
21.86842131614685,-66438.0,-74.2653,0.4419
21.877500295639038,-66470.0,-78.7078,0.4419
21.878406286239624,-66508.0,-84.0302,0.4418
21.907328844070435,-66536.0,-91.4747,0.4418
21.937532901763916,-66536.0,-101.3782,0.4417
21.96606755256653,-66459.0,-111.1864,0.4417
21.96682620048523,-66304.0,-112.9481,0.4417
21.996071338653564,-66171.0,-92.9631,0.4418
22.02297568321228,-66064.0,-37.4784,0.4421
22.023963928222656,-65993.0,57.2939,0.4427
22.04603600502014,-65954.0,179.3785,0.4434
22.079838752746582,-65939.0,304.7598,0.4441
22.106273889541626,-65932.0,407.7749,0.4447
22.126841068267822,-65920.0,471.6082,0.4451
22.137022256851196,-65922.0,493.5677,0.4453
22.157649517059326,-65928.0,483.1881,0.4452
22.164325952529907,-65951.0,455.209,0.445
22.199992895126343,-65977.0,422.0814,0.4448
22.220897912979126,-65996.0,390.0433,0.4446
22.232178688049316,-66013.0,359.8256,0.4445
22.2625789642334,-66015.0,330.0701,0.4443
22.283998489379883,-66015.0,300.4404,0.4441
22.29593825340271,-66015.0,272.6423,0.4439
22.316564083099365,-66029.0,249.1551,0.4438
22.32621479034424,-66042.0,231.0428,0.4437
22.36029815673828,-66057.0,216.8486,0.4436
22.36416244506836,-66074.0,203.499,0.4435
22.379414319992065,-66115.0,187.9272,0.4434
22.395023822784424,-66138.0,167.9463,0.4433
22.427055835723877,-66161.0,142.705,0.4432
22.448498249053955,-66181.0,113.2591,0.443
22.467589616775513,-66204.0,82.45,0.4428
22.47884750366211,-66218.0,53.5873,0.4426
22.506995916366577,-66238.0,29.0407,0.4425
22.537969827651978,-66253.0,9.6315,0.4424
22.56176733970642,-66260.0,-5.1443,0.4423
22.562420129776,-66274.0,-16.3295,0.4422
22.585402965545654,-66293.0,-24.8908,0.4422
22.599380493164062,-66310.0,-31.8468,0.4421
22.63246774673462,-66321.0,-38.3368,0.4421
22.638182401657104,-66336.0,-45.1611,0.4421
22.658520460128784,-66360.0,-52.3876,0.442
22.676109075546265,-66403.0,-60.02,0.442
22.699440956115723,-66425.0,-68.916,0.4419
22.716131448745728,-66399.0,-80.015,0.4418
22.736876010894775,-66282.0,-90.8234,0.4418
22.767484188079834,-66130.0,-91.7632,0.4418
22.78745675086975,-65995.0,-67.4566,0.4419
22.7972571849823,-65905.0,-5.281,0.4423
22.81627321243286,-65844.0,94.3056,0.4429
22.84865975379944,-65822.0,214.4431,0.4436
22.86925959587097,-65825.0,328.441,0.4443
22.88864302635193,-65819.0,411.3704,0.4448
22.906862497329712,-65820.0,450.0353,0.445
22.924363136291504,-65828.0,446.5665,0.445
22.950205087661743,-65845.0,414.3543,0.4448
22.958958864212036,-65865.0,369.7253,0.4445
22.984140634536743,-65866.0,325.0148,0.4443
22.998756647109985,-65854.0,286.4866,0.444
23.018252849578857,-65845.0,256.1435,0.4438
23.037834882736206,-65836.0,234.002,0.4437
23.05859375,-65838.0,218.9013,0.4436
23.077117204666138,-65864.0,208.214,0.4436
23.112377643585205,-65879.0,197.7161,0.4435
23.126256227493286,-65883.0,182.864,0.4434
23.13965153694153,-65888.0,161.3634,0.4433
23.15965700149536,-65893.0,134.6779,0.4431
23.191616773605347,-65900.0,106.7544,0.443
23.21653962135315,-65905.0,81.4246,0.4428
23.226077556610107,-65911.0,60.5993,0.4427
23.247573852539062,-65941.0,43.8458,0.4426
23.267946004867554,-65963.0,28.7321,0.4425
23.288024187088013,-65986.0,11.8207,0.4424
23.3055419921875,-65999.0,-9.3951,0.4423
23.326281547546387,-66001.0,-34.7614,0.4421
23.33894944190979,-65980.0,-61.0303,0.442
23.357185125350952,-65964.0,-82.861,0.4418
23.378103971481323,-65967.0,-95.2163,0.4418
23.412019968032837,-65972.0,-96.4949,0.4417
23.424760103225708,-65987.0,-90.0043,0.4418
23.437917709350586,-66006.0,-82.3697,0.4418
23.458953857421875,-66028.0,-80.2112,0.4418
23.48312759399414,-66049.0,-87.3138,0.4418
23.49992299079895,-66066.0,-103.6151,0.4417
23.51634192466736,-66068.0,-125.759,0.4416
23.540849447250366,-66033.0,-148.2657,0.4414
23.563789129257202,-65936.0,-163.985,0.4413
23.583035230636597,-65811.0,-163.889,0.4413
23.599862337112427,-65684.0,-138.2478,0.4415
23.616780281066895,-65560.0,-80.6546,0.4418
23.63829207420349,-65467.0,7.3119,0.4424
23.66770577430725,-65405.0,114.529,0.443
23.69198751449585,-65362.0,223.0925,0.4436
23.69628095626831,-65341.0,314.1809,0.4442
23.729900360107422,-65302.0,374.5544,0.4445
23.738479137420654,-65276.0,400.749,0.4447
23.757177591323853,-65269.0,398.8781,0.4447
23.777333974838257,-65273.0,379.7567,0.4446
23.80132818222046,-65273.0,352.8139,0.4444
23.821188926696777,-65281.0,323.0095,0.4442
23.849322080612183,-65263.0,291.6727,0.4441
23.8573157787323,-65255.0,259.1449,0.4439
23.876985549926758,-65246.0,226.6905,0.4437
23.900548219680786,-65243.0,196.2393,0.4435
23.921135902404785,-65245.0,168.8896,0.4433
23.956538915634155,-65235.0,144.1282,0.4432
23.957473516464233,-65240.0,120.4745,0.443
23.983698844909668,-65261.0,96.3587,0.4429
24.001799821853638,-65295.0,70.0457,0.4427
24.021793365478516,-65323.0,39.2503,0.4426
24.040167331695557,-65338.0,2.0691,0.4423
24.05865216255188,-65369.0,-41.2782,0.4421
24.0909686088562,-65396.0,-88.0792,0.4418
24.108562231063843,-65426.0,-134.8151,0.4415
24.141441583633423,-65452.0,-178.9357,0.4413
24.146412134170532,-65487.0,-219.4345,0.441
24.18123984336853,-65526.0,-256.6613,0.4408
24.18769931793213,-65559.0,-291.8975,0.4406
24.201680421829224,-65590.0,-326.4927,0.4404
24.222546577453613,-65607.0,-360.7163,0.4402
24.241369485855103,-65619.0,-393.1163,0.44
24.273194551467896,-65620.0,-420.8566,0.4398
24.279083013534546,-65640.0,-440.9616,0.4397
24.304108381271362,-65648.0,-452.1128,0.4396
24.339155912399292,-65648.0,-455.5135,0.4396
24.352781295776367,-65560.0,-453.0669,0.4396
24.376277208328247,-65421.0,-443.0143,0.4397
24.38882565498352,-65270.0,-416.9225,0.4398
24.408427238464355,-65125.0,-362.9288,0.4402
24.42782998085022,-65007.0,-274.1137,0.4407
24.448434114456177,-64927.0,-155.389,0.4414
24.468660831451416,-64877.0,-23.8462,0.4422
24.490933895111084,-64848.0,97.3149,0.4429
24.522495985031128,-64830.0,187.7628,0.4434
24.531233072280884,-64820.0,237.0963,0.4437
24.54924988746643,-64832.0,246.8021,0.4438
24.573776721954346,-64866.0,226.5342,0.4437
24.588499784469604,-64895.0,187.818,0.4434
24.607324361801147,-64911.0,139.5706,0.4431
24.625930309295654,-64919.0,87.6841,0.4428
24.651036024093628,-64924.0,36.6552,0.4425
24.664459228515625,-64922.0,-9.5488,0.4423
24.684287548065186,-64930.0,-48.0152,0.442
24.7040376663208,-64958.0,-78.0659,0.4419
24.71929430961609,-64988.0,-102.1343,0.4417
24.74051284790039,-65020.0,-125.1558,0.4416
24.771023988723755,-65056.0,-152.1768,0.4414
24.79067873954773,-65104.0,-186.0121,0.4412
24.81012272834778,-65161.0,-226.7667,0.441
24.819924116134644,-65228.0,-273.053,0.4407
24.850012063980103,-65298.0,-323.4738,0.4404
24.87089228630066,-65352.0,-377.0042,0.4401
24.897056341171265,-65401.0,-432.1458,0.4398
24.904292583465576,-65439.0,-485.9282,0.4394
24.92190718650818,-65485.0,-534.2307,0.4392
24.939855575561523,-65518.0,-573.4432,0.4389
24.962477207183838,-65537.0,-601.8555,0.4387
24.991437435150146,-65542.0,-619.4053,0.4386
24.99942398071289,-65550.0,-626.4467,0.4386
25.03397250175476,-65584.0,-623.5908,0.4386
25.03842854499817,-65630.0,-613.1016,0.4387
25.060497760772705,-65676.0,-599.9524,0.4388
25.093738794326782,-65720.0,-590.4292,0.4388
25.107991933822632,-65754.0,-588.9106,0.4388
25.120521545410156,-65782.0,-595.4195,0.4388
25.142232179641724,-65795.0,-605.6706,0.4387
25.170455932617188,-65723.0,-612.4917,0.4387
25.192384243011475,-65545.0,-605.8463,0.4387
25.201876163482666,-65343.0,-571.5294,0.4389
25.231120347976685,-65148.0,-493.6884,0.4394
25.252135515213013,-64990.0,-363.5155,0.4402
25.275526523590088,-64889.0,-188.0235,0.4412
25.284586668014526,-64844.0,8.5829,0.4424
25.30408549308777,-64830.0,192.3688,0.4435
25.325541496276855,-64830.0,332.1108,0.4443
25.34731411933899,-64830.0,410.611,0.4448
25.361927032470703,-64837.0,429.3036,0.4449
25.395562648773193,-64866.0,404.4015,0.4447
25.419468879699707,-64921.0,357.1208,0.4444
25.428303003311157,-64964.0,303.8008,0.4441
25.448162078857422,-64983.0,251.9626,0.4438
25.473254442214966,-64997.0,203.186,0.4435
25.503262042999268,-65015.0,158.0139,0.4433
25.50893259048462,-65027.0,117.9836,0.443
25.52398991584778,-65046.0,84.6994,0.4428
25.546483516693115,-65078.0,58.3437,0.4427
25.582789659500122,-65129.0,36.7536,0.4425
25.592151403427124,-65190.0,15.4984,0.4424
25.609983682632446,-65242.0,-10.7756,0.4423
25.620446920394897,-65284.0,-45.6261,0.4421
25.65430736541748,-65309.0,-88.3603,0.4418
25.668023347854614,-65329.0,-133.6591,0.4415
25.69330334663391,-65350.0,-173.8888,0.4413
25.701615810394287,-65367.0,-202.7943,0.4411
25.733713626861572,-65381.0,-218.1113,0.441
25.74445605278015,-65391.0,-221.6685,0.441
25.773486375808716,-65407.0,-217.5402,0.441
25.780035734176636,-65406.0,-209.854,0.4411
25.800405502319336,-65442.0,-201.4619,0.4411
25.82072114944458,-65469.0,-194.1266,0.4412
25.85281205177307,-65512.0,-189.5452,0.4412
25.863290786743164,-65561.0,-189.7055,0.4412
25.881590127944946,-65614.0,-196.2999,0.4412
25.899646043777466,-65659.0,-209.9828,0.4411
25.923311948776245,-65718.0,-229.7805,0.441
25.949671030044556,-65774.0,-253.3738,0.4408
25.96135711669922,-65825.0,-278.1315,0.4407
25.994128704071045,-65859.0,-301.7496,0.4405
26.002143144607544,-65871.0,-321.7661,0.4404
26.03796672821045,-65864.0,-334.7562,0.4403
26.040122985839844,-65825.0,-336.1527,0.4403
26.073291778564453,-65670.0,-320.2712,0.4404
26.08649492263794,-65433.0,-278.6417,0.4407
26.10614562034607,-65219.0,-199.0716,0.4411
26.1251118183136,-65039.0,-70.973,0.4419
26.156625270843506,-64917.0,104.2204,0.4429
26.162662744522095,-64862.0,306.9549,0.4441
26.18428087234497,-64849.0,503.8301,0.4453
26.202390909194946,-64875.0,659.6776,0.4462
26.221496105194092,-64917.0,750.3412,0.4468
26.24168872833252,-64956.0,769.9818,0.4469
26.262949466705322,-65001.0,730.5035,0.4467
26.282580614089966,-65032.0,654.7393,0.4462
26.301865339279175,-65038.0,567.4149,0.4457
26.33842396736145,-65023.0,488.3528,0.4452
26.347870111465454,-65014.0,429.584,0.4449
26.36785364151001,-65017.0,394.842,0.4447
26.399935960769653,-65017.0,380.2953,0.4446
26.406355142593384,-65040.0,376.9554,0.4446
26.421811819076538,-65059.0,374.4902,0.4445
26.443573713302612,-65087.0,364.7396,0.4445
26.480777740478516,-65118.0,343.8265,0.4444
26.495402336120605,-65163.0,312.1809,0.4442
26.51794147491455,-65205.0,272.7134,0.4439
26.53239631652832,-65254.0,228.746,0.4437
26.557373046875,-65321.0,182.6428,0.4434
26.58616352081299,-65396.0,135.1641,0.4431
26.593163013458252,-65436.0,85.6509,0.4428
26.609511375427246,-65482.0,33.8995,0.4425
26.63444757461548,-65495.0,-17.6252,0.4422
26.65126943588257,-65507.0,-63.624,0.4419
26.669859409332275,-65504.0,-97.94,0.4417
26.686187744140625,-65498.0,-116.1711,0.4416
26.701395511627197,-65483.0,-117.3309,0.4416
26.735555171966553,-65472.0,-103.8462,0.4417
26.741729259490967,-65480.0,-80.4864,0.4418
26.760967254638672,-65487.0,-53.2923,0.442
26.79549217224121,-65489.0,-28.2895,0.4422
26.815661430358887,-65491.0,-9.6445,0.4423
26.839075565338135,-65505.0,1.6572,0.4423
26.848915100097656,-65520.0,7.147,0.4424
26.868204593658447,-65540.0,8.9561,0.4424
26.88797903060913,-65558.0,8.4412,0.4424
26.91120457649231,-65587.0,5.9889,0.4424
26.92554473876953,-65589.0,1.5628,0.4423
26.945711612701416,-65505.0,-3.5387,0.4423
26.96705651283264,-65367.0,-3.4045,0.4423
26.98463249206543,-65216.0,14.2128,0.4424
27.01623272895813,-65074.0,63.459,0.4427
27.035924196243286,-64963.0,151.4389,0.4432
27.04313349723816,-64896.0,271.6052,0.4439
27.0731680393219,-64849.0,404.2651,0.4447
27.088345766067505,-64825.0,524.0525,0.4454
27.10250473022461,-64820.0,609.9823,0.4459
27.123459815979004,-64824.0,652.3027,0.4462
27.143024444580078,-64855.0,653.301,0.4462
27.172852039337158,-64895.0,622.9727,0.446
27.196091175079346,-64934.0,573.0181,0.4457
27.21600890159607,-64957.0,513.0356,0.4454
27.23532462120056,-64959.0,450.1227,0.445
27.243043661117554,-64961.0,390.2458,0.4446
27.26134753227234,-64954.0,338.7423,0.4443
27.294474601745605,-64948.0,299.201,0.4441
27.314242839813232,-64950.0,272.2435,0.4439
27.334168910980225,-64963.0,255.1754,0.4438
27.35358476638794,-64990.0,242.6714,0.4438
27.36973524093628,-65012.0,228.3947,0.4437
27.39017367362976,-65047.0,207.2166,0.4436
27.410520792007446,-65089.0,176.8213,0.4434
27.437299251556396,-65130.0,137.7239,0.4431
27.442318201065063,-65173.0,92.2311,0.4429
27.46356177330017,-65208.0,43.4608,0.4426
27.490012645721436,-65240.0,-5.2951,0.4423
27.512244939804077,-65264.0,-50.9597,0.442
27.53031301498413,-65285.0,-90.9885,0.4418
27.543310165405273,-65306.0,-123.7424,0.4416
27.563657760620117,-65328.0,-148.8668,0.4414
27.5925612449646,-65353.0,-167.4276,0.4413
27.609875440597534,-65381.0,-181.6186,0.4412
27.62481665611267,-65408.0,-194.0426,0.4412
27.64686417579651,-65440.0,-206.8634,0.4411
27.67193031311035,-65474.0,-221.2867,0.441
27.700276136398315,-65508.0,-237.5375,0.4409
27.703442573547363,-65521.0,-255.0049,0.4408
27.737369537353516,-65546.0,-272.1261,0.4407
27.747551202774048,-65561.0,-286.6035,0.4406
27.76755714416504,-65529.0,-296.0198,0.4406
27.795957803726196,-65401.0,-296.8591,0.4406
27.826899766921997,-65246.0,-281.5974,0.4406
27.831750631332397,-65107.0,-238.7022,0.4409
27.84722328186035,-64997.0,-159.1717,0.4414
27.865883350372314,-64938.0,-45.3131,0.4421
27.885196447372437,-64915.0,86.0949,0.4428
27.910868883132935,-64904.0,209.1898,0.4436
27.9361732006073,-64903.0,299.8644,0.4441
27.97000002861023,-64897.0,345.4947,0.4444
27.976778268814087,-64910.0,348.3762,0.4444
27.996023893356323,-64930.0,321.5467,0.4442
28.01822590827942,-64965.0,280.6497,0.444
28.031327724456787,-64996.0,236.9825,0.4437
28.04218864440918,-65024.0,195.1606,0.4435
28.06951117515564,-65033.0,155.2872,0.4432
28.082157611846924,-65041.0,116.7179,0.443
28.111699104309082,-65056.0,80.3687,0.4428
28.12248182296753,-65068.0,48.2375,0.4426
28.143537998199463,-65086.0,21.5523,0.4424
28.164331912994385,-65102.0,-0.256,0.4423
28.18886661529541,-65134.0,-19.2445,0.4422
28.20411705970764,-65154.0,-38.0921,0.4421
28.23896598815918,-65174.0,-58.9403,0.442
28.244450330734253,-65206.0,-82.4075,0.4418
28.263331651687622,-65234.0,-107.6788,0.4417
28.286842584609985,-65264.0,-133.5184,0.4415
28.30725908279419,-65288.0,-158.9829,0.4414
28.329505443572998,-65312.0,-183.2953,0.4412
28.371081113815308,-65340.0,-205.7187,0.4411
28.378641605377197,-65367.0,-225.6994,0.441
28.38325834274292,-65397.0,-243.2475,0.4409
28.4293372631073,-65422.0,-258.9197,0.4408
28.43473219871521,-65445.0,-273.3293,0.4407
28.450496673583984,-65461.0,-286.5718,0.4406
28.469412803649902,-65477.0,-297.9529,0.4406
28.505874633789062,-65500.0,-306.3654,0.4405
28.512664556503296,-65525.0,-311.2491,0.4405
28.532671451568604,-65551.0,-313.3014,0.4405
28.543636322021484,-65578.0,-314.255,0.4405
28.569337606430054,-65610.0,-315.9548,0.4404
28.59102177619934,-65636.0,-319.5423,0.4404
28.611303329467773,-65669.0,-325.1434,0.4404
28.633741855621338,-65693.0,-331.9998,0.4404
28.65253210067749,-65674.0,-338.4815,0.4403
28.67345356941223,-65555.0,-340.6504,0.4403
28.688296794891357,-65383.0,-329.3482,0.4404
28.721500635147095,-65248.0,-290.3012,0.4406
28.72886848449707,-65136.0,-211.5065,0.4411
28.747442483901978,-65070.0,-93.5889,0.4418
28.781530618667603,-65043.0,46.33,0.4426
28.7885525226593,-65028.0,180.7445,0.4434
28.812825202941895,-65036.0,283.4849,0.444
28.82838273048401,-65042.0,339.8557,0.4443
28.849533557891846,-65065.0,350.1783,0.4444
28.8680522441864,-65089.0,326.2334,0.4443
28.885557889938354,-65128.0,283.8966,0.444
28.90405797958374,-65159.0,236.3244,0.4437
28.932183980941772,-65177.0,190.9076,0.4435
28.95030450820923,-65187.0,150.2896,0.4432
28.968629598617554,-65174.0,115.3519,0.443
28.987820386886597,-65170.0,87.3885,0.4428
29.013906955718994,-65160.0,68.1667,0.4427
29.03258204460144,-65165.0,58.4109,0.4427
29.054457902908325,-65173.0,56.3415,0.4427
29.072668075561523,-65190.0,57.7118,0.4427
29.091475248336792,-65215.0,57.2655,0.4427
29.120272397994995,-65239.0,50.6263,0.4426
29.12542724609375,-65281.0,35.6054,0.4425
29.157883167266846,-65306.0,12.3893,0.4424
29.164121627807617,-65326.0,-16.8759,0.4422
29.185816287994385,-65339.0,-48.431,0.442
29.20507287979126,-65359.0,-77.7623,0.4419
29.225001096725464,-65380.0,-101.3041,0.4417
29.24420666694641,-65415.0,-118.12,0.4416
29.26634120941162,-65438.0,-130.176,0.4415
29.285356521606445,-65443.0,-140.7574,0.4415
29.318224668502808,-65448.0,-151.7597,0.4414
29.33747887611389,-65460.0,-162.2391,0.4414
29.34715175628662,-65485.0,-169.833,0.4413
29.364554405212402,-65512.0,-173.5254,0.4413
29.386951208114624,-65535.0,-174.9052,0.4413
29.405678510665894,-65551.0,-176.9046,0.4413
29.425641775131226,-65574.0,-181.4635,0.4412
29.444908380508423,-65598.0,-188.5113,0.4412
29.478166580200195,-65613.0,-196.6171,0.4412
29.48522925376892,-65596.0,-203.7484,0.4411
29.51084589958191,-65480.0,-206.2956,0.4411
29.53321123123169,-65312.0,-196.2595,0.4412
29.55436062812805,-65163.0,-160.6749,0.4414
29.56497621536255,-65034.0,-87.645,0.4418
29.595797061920166,-64943.0,24.1585,0.4425
29.621463775634766,-64892.0,160.8322,0.4433
29.645123720169067,-64864.0,297.5532,0.4441
29.651296854019165,-64853.0,408.5006,0.4447
29.668968200683594,-64852.0,476.7334,0.4452
29.690060138702393,-64854.0,498.9572,0.4453
29.713239192962646,-64874.0,483.8635,0.4452
29.73725962638855,-64901.0,445.898,0.445
29.758830070495605,-64929.0,398.3582,0.4447
29.78365707397461,-64940.0,349.5726,0.4444
29.790220260620117,-64938.0,303.3853,0.4441
29.82414436340332,-64932.0,261.7585,0.4439
29.835355043411255,-64915.0,226.6363,0.4437
29.854557752609253,-64910.0,199.8912,0.4435
29.868918895721436,-64918.0,181.9566,0.4434
29.890732288360596,-64926.0,170.5947,0.4433
29.904338836669922,-64939.0,161.1996,0.4433
29.93536400794983,-64965.0,148.7645,0.4432
29.947251796722412,-64982.0,129.8567,0.4431
29.982927083969116,-65009.0,103.5499,0.4429
29.993937253952026,-65028.0,71.2953,0.4427
30.00753664970398,-65061.0,35.941,0.4425
30.025405168533325,-65096.0,0.2088,0.4423
30.04751491546631,-65123.0,-34.4861,0.4421
30.066933393478394,-65150.0,-67.9537,0.4419
30.088218688964844,-65174.0,-100.1816,0.4417
30.125848293304443,-65189.0,-130.5697,0.4415
30.136317253112793,-65208.0,-157.8754,0.4414
30.151397466659546,-65229.0,-180.8171,0.4412
30.17067003250122,-65242.0,-198.8803,0.4411
30.191089391708374,-65260.0,-212.5581,0.4411
30.217928171157837,-65277.0,-222.9492,0.441
30.23764443397522,-65301.0,-231.3452,0.4409
30.25714349746704,-65320.0,-238.993,0.4409
30.276299715042114,-65338.0,-246.8605,0.4409
30.30672597885132,-65361.0,-255.27,0.4408
30.311144828796387,-65371.0,-263.814,0.4408
30.348732471466064,-65330.0,-271.115,0.4407
30.361659288406372,-65181.0,-272.9217,0.4407
30.381515979766846,-65016.0,-259.3209,0.4408
30.4020779132843,-64854.0,-215.923,0.441
30.423014402389526,-64710.0,-131.7738,0.4415
30.443737983703613,-64614.0,-8.2856,0.4423
30.46313238143921,-64548.0,138.0928,0.4431
30.477863073349,-64529.0,281.1742,0.444
30.50318145751953,-64501.0,394.9112,0.4447
30.51200795173645,-64481.0,463.0256,0.4451
30.52669644355774,-64475.0,483.9665,0.4452
30.559495210647583,-64496.0,468.484,0.4451
30.592361450195312,-64528.0,431.7323,0.4449
30.600419282913208,-64565.0,385.5193,0.4446
30.616633653640747,-64575.0,335.5814,0.4443
30.63712501525879,-64581.0,283.906,0.444
30.657140970230103,-64580.0,232.5296,0.4437
30.66651940345764,-64571.0,184.9832,0.4434
30.685646057128906,-64577.0,145.0235,0.4432
30.729315280914307,-64575.0,114.5126,0.443
30.730346202850342,-64593.0,92.1652,0.4429
30.755499362945557,-64621.0,73.9429,0.4428
30.775424003601074,-64649.0,54.475,0.4426
30.798569440841675,-64682.0,29.0668,0.4425
30.808835744857788,-64718.0,-4.5022,0.4423
30.829673767089844,-64748.0,-45.4302,0.4421
30.866539001464844,-64783.0,-90.6416,0.4418
30.87812829017639,-64812.0,-136.241,0.4415
30.898254871368408,-64842.0,-178.9227,0.4413
30.9179904460907,-64869.0,-216.7443,0.441
30.951640129089355,-64900.0,-249.2295,0.4408
30.952672243118286,-64926.0,-276.99,0.4407
30.970834493637085,-64943.0,-301.0983,0.4405
30.98835802078247,-64967.0,-322.2165,0.4404
31.00706171989441,-64994.0,-340.387,0.4403
31.025546550750732,-65015.0,-355.6156,0.4402
31.047588109970093,-65049.0,-368.3508,0.4401
31.073585748672485,-65063.0,-379.454,0.4401
31.09510087966919,-65097.0,-389.6516,0.44
31.108152389526367,-65122.0,-399.2413,0.44
31.13019061088562,-65154.0,-408.2875,0.4399
31.150543212890625,-65175.0,-416.8351,0.4398
31.169291496276855,-65132.0,-424.1847,0.4398
31.20406174659729,-64982.0,-426.1921,0.4398
31.210119485855103,-64802.0,-411.9654,0.4399
31.231189966201782,-64623.0,-365.2677,0.4402
31.259074449539185,-64466.0,-273.1421,0.4407
31.266868591308594,-64349.0,-135.9467,0.4415
31.286413431167603,-64290.0,29.167,0.4425
31.3257896900177,-64251.0,193.4643,0.4435
31.33634877204895,-64237.0,327.447,0.4443
31.355123281478882,-64220.0,411.7242,0.4448
31.368528127670288,-64218.0,442.8069,0.4449
31.389668941497803,-64240.0,431.1918,0.4449
31.409068822860718,-64279.0,393.5362,0.4447
31.433298349380493,-64311.0,344.22,0.4444
31.44648241996765,-64337.0,291.3582,0.4441
31.46922993659973,-64340.0,238.2368,0.4437
31.50317144393921,-64330.0,186.9941,0.4434
31.512025833129883,-64327.0,140.9561,0.4432
31.527165412902832,-64332.0,103.8841,0.4429
31.550252199172974,-64348.0,77.2586,0.4428
31.576621294021606,-64364.0,58.6542,0.4427
31.606772422790527,-64387.0,42.7511,0.4426
31.61874294281006,-64420.0,24.0033,0.4425
31.635249614715576,-64456.0,-1.23,0.4423
31.652612924575806,-64504.0,-34.0965,0.4421
31.678552389144897,-64549.0,-73.7727,0.4419
31.712562084197998,-64589.0,-118.2929,0.4416
31.7374370098114,-64627.0,-164.9743,0.4413
31.75834822654724,-64650.0,-210.614,0.4411
31.764501810073853,-64675.0,-251.8574,0.4408
31.78508496284485,-64697.0,-285.8524,0.4406
31.806523084640503,-64720.0,-311.1756,0.4405
31.824463367462158,-64735.0,-328.2635,0.4404
31.83090043067932,-64758.0,-338.9429,0.4403
31.870291471481323,-64778.0,-345.494,0.4403
31.871399879455566,-64805.0,-350.0259,0.4402
31.904865503311157,-64831.0,-354.2106,0.4402
31.91039800643921,-64860.0,-359.1819,0.4402
31.93159294128418,-64879.0,-365.3501,0.4402
31.946433305740356,-64850.0,-371.8182,0.4401
31.976934909820557,-64729.0,-374.524,0.4401
31.99619436264038,-64547.0,-363.6333,0.4402
32.0307354927063,-64353.0,-323.8067,0.4404
32.03645467758179,-64188.0,-240.6841,0.4409
32.06322479248047,-64068.0,-110.85,0.4417
32.07332944869995,-63997.0,52.0822,0.4426
32.091426610946655,-63973.0,220.308,0.4436
32.110190868377686,-63964.0,362.0844,0.4445
32.127384662628174,-63968.0,453.7332,0.445
32.160128593444824,-63988.0,487.3933,0.4452
32.17953181266785,-64025.0,470.9281,0.4451
32.210935831069946,-64073.0,421.0598,0.4448
32.22117519378662,-64112.0,354.968,0.4444
32.25911736488342,-64125.0,285.2829,0.444
32.26887321472168,-64130.0,219.8459,0.4436
32.283170223236084,-64118.0,163.7494,0.4433
32.28953766822815,-64118.0,120.4609,0.443
32.30949068069458,-64132.0,91.0885,0.4429
32.328954219818115,-64142.0,73.2024,0.4428
32.348963499069214,-64167.0,61.1944,0.4427
32.3824737071991,-64207.0,48.3783,0.4426
32.389941453933716,-64240.0,29.2693,0.4425
32.409056663513184,-64284.0,0.9982,0.4423
32.42971158027649,-64315.0,-36.0502,0.4421
32.45052695274353,-64359.0,-78.7695,0.4419
32.47169280052185,-64378.0,-122.7604,0.4416
32.491594076156616,-64417.0,-163.8024,0.4413
32.51234769821167,-64451.0,-199.0781,0.4411
32.53234672546387,-64478.0,-227.9243,0.441
32.572734355926514,-64514.0,-251.5105,0.4408
32.58267855644226,-64534.0,-271.5729,0.4407
32.59767293930054,-64556.0,-289.2499,0.4406
32.62740397453308,-64569.0,-304.4653,0.4405
32.63203048706055,-64593.0,-316.1721,0.4404
32.65151262283325,-64625.0,-323.5345,0.4404
32.6730682849884,-64658.0,-327.2368,0.4404
32.68745255470276,-64688.0,-329.5553,0.4404
32.708579301834106,-64716.0,-333.004,0.4403
32.728145122528076,-64714.0,-338.5135,0.4403
32.75208353996277,-64615.0,-343.4493,0.4403
32.77801465988159,-64433.0,-339.0125,0.4403
32.797330141067505,-64219.0,-309.2679,0.4405
32.82321095466614,-64023.0,-236.2359,0.4409
32.830549478530884,-63864.0,-110.459,0.4417
32.84792375564575,-63780.0,59.9111,0.4427
32.87356686592102,-63741.0,248.4458,0.4438
32.89866805076599,-63726.0,419.3011,0.4448
32.9183554649353,-63729.0,541.1666,0.4455
32.94964838027954,-63732.0,598.9034,0.4459
32.95905876159668,-63751.0,596.8423,0.4459
32.9773952960968,-63802.0,552.9338,0.4456
32.995463132858276,-63855.0,488.0822,0.4452
33.009011030197144,-63888.0,417.4655,0.4448
33.027626752853394,-63900.0,348.703,0.4444
33.04884219169617,-63914.0,285.1962,0.444
33.07187509536743,-63919.0,229.4145,0.4437
33.09366774559021,-63924.0,183.4501,0.4434
33.11152911186218,-63930.0,148.1194,0.4432
33.1407573223114,-63958.0,122.1298,0.443
33.16661500930786,-63984.0,101.871,0.4429
33.168294191360474,-64016.0,82.2482,0.4428
33.19332695007324,-64047.0,58.645,0.4427
33.21233797073364,-64095.0,28.6992,0.4425
33.233240842819214,-64139.0,-7.5142,0.4423
33.25341582298279,-64175.0,-48.3319,0.442
33.28291845321655,-64218.0,-91.2808,0.4418
33.2948272228241,-64257.0,-133.5688,0.4415
33.30965256690979,-64280.0,-172.733,0.4413
33.32915258407593,-64306.0,-206.889,0.4411
33.36091113090515,-64314.0,-234.4945,0.4409
33.374520778656006,-64333.0,-254.3699,0.4408
33.38804602622986,-64367.0,-266.2789,0.4407
33.40766501426697,-64401.0,-271.9543,0.4407
33.43871569633484,-64443.0,-275.1897,0.4407
33.44927525520325,-64468.0,-280.2915,0.4407
