tiempo_relativo_s,primera_derivada,segunda_derivada
0.0022497177124023438,68.35000000000002,-377.3437500000014
0.003844022750854492,65.33125000000001,-751.5625000000039
0.005694389343261719,56.32499999999996,-1306.6406250000048
0.007008790969848633,44.42499999999993,-1482.4218749999939
0.008168935775756836,32.60625000000006,-1585.15624999999
0.009885072708129883,19.062500000000092,-1895.3125000000027
0.011087656021118164,2.2812500000000124,-2194.1406250000073
0.012280464172363281,-16.043750000000024,-2247.2656250000014
0.013141870498657227,-33.67500000000001,-2163.2812500000027
0.013936519622802734,-50.65625000000007,-2205.0781250000027
0.014683008193969727,-68.95625000000005,-2386.718749999992
0.015300750732421875,-88.84374999999994,-2315.6249999999945
0.016317367553710938,-106.00624999999997,-1526.9531250000039
0.017148494720458984,-113.275,-21.87500000000142
0.017940998077392578,-106.35624999999999,1606.2499999999993
0.018606901168823242,-87.57500000000002,2671.8749999999973
0.01907634735107422,-63.60625000000003,2894.5312500000023
0.019482851028442383,-41.26249999999998,2444.5312500000014
0.019892215728759766,-24.49375000000001,1743.749999999999
0.020292043685913086,-13.362499999999999,1120.7031250000005
0.020717382431030273,-6.562499999999999,623.4375000000008
0.02111530303955078,-3.3874999999999877,248.43750000000043
0.02151322364807129,-2.5874999999999924,-68.75000000000108
0.021921157836914062,-4.487500000000005,-654.296875
0.022321462631225586,-13.056249999999991,-1560.546874999999
0.022733211517333984,-29.45624999999999,-2115.625000000001
0.023134946823120117,-46.90625000000001,-1684.3750000000014
0.02353358268737793,-56.406250000000014,-535.9374999999993
0.02394247055053711,-55.481249999999996,383.5937500000011
0.024343490600585938,-50.26875,377.73437500000017
0.024752140045166016,-49.43749999999999,-313.6718749999994
0.02515125274658203,-55.28749999999999,-739.4531250000002
0.025550127029418945,-61.26875,-300.0000000000007
0.025964975357055664,-60.0875,500.7812499999997
0.026370763778686523,-53.25625,621.4843750000001
0.02678513526916504,-50.14375,-298.0468749999994
0.02719283103942871,-58.02499999999999,-1532.0312500000002
0.02791142463684082,-74.65625,-2069.140625
0.028371334075927734,-91.13125,-1589.0624999999989
0.028809547424316406,-100.08124999999998,-476.9531250000023
0.029233217239379883,-98.76250000000003,726.5624999999982
0.029748916625976562,-88.45625000000001,1520.7031250000016
0.030169963836669922,-74.43125,1589.062500000002
0.03058004379272461,-63.03124999999998,996.8750000000015
0.03099513053894043,-58.48124999999998,4.296874999996536
0.03140425682067871,-62.962500000000034,-1098.828125000003
0.03199338912963867,-76.06250000000003,-1917.5781249999993
0.03241539001464844,-93.64375000000003,-2072.2656249999927
0.03283524513244629,-109.21874999999991,-1559.7656249999936
0.03325080871582031,-118.59999999999992,-882.0312500000051
0.03366971015930176,-123.33125,-491.7968750000057
0.03408360481262207,-126.46875000000001,-204.29687500000247
0.034497976303100586,-126.60000000000004,495.31249999999716
0.03491806983947754,-118.54375000000006,1760.5468750000045
0.03533053398132324,-98.43124999999996,3079.687500000011
0.03574943542480469,-69.26874999999988,3566.015625000002
0.03615856170654297,-41.374999999999936,2823.437499999991
0.036569833755493164,-24.093750000000025,1489.453124999998
0.03699445724487305,-17.543749999999967,581.6406250000044
0.037409067153930664,-14.787499999999953,420.31249999999176
0.037831783294677734,-10.8187500000001,560.1562499999851
0.038248538970947266,-5.825000000000191,627.343750000009
0.038674354553222656,-0.7812499999999556,753.1250000000211
0.03908991813659668,6.225000000000147,1195.7031249999889
0.03952479362487793,18.349999999999866,1802.3437499999902
0.039945125579833984,35.06249999999999,2024.6093750000136
0.04036116600036621,50.743750000000084,1543.3593749999975
0.04083108901977539,59.75624999999995,808.593749999996
0.041248321533203125,63.68125000000002,723.4375000000001
0.04167032241821289,71.33124999999995,1422.2656249999952
0.04208803176879883,86.43749999999994,1830.8593750000073
0.04250335693359375,100.62500000000007,1112.1093750000027
0.04292440414428711,104.23124999999999,-339.0625000000078
0.043340444564819336,95.19999999999995,-1762.8906249999989
0.0437624454498291,76.025,-2719.1406249999977
0.044175148010253906,51.69374999999998,-2879.687499999998
0.04462575912475586,29.95000000000003,-2184.7656249999945
0.04519033432006836,16.73750000000007,-1209.7656250000045
0.045676469802856445,10.593749999999957,-683.9843750000088
0.046088457107543945,5.793749999999931,-568.7499999999928
0.046494483947753906,1.4937500000000714,-205.85937499999207
0.046907901763916016,2.5000000000000577,648.4374999999944
0.04731583595275879,11.868749999999983,1584.7656249999982
0.0477292537689209,27.856250000000028,2140.625
0.04814028739929199,46.118749999999984,2141.7968749999973
0.048636436462402344,62.124999999999986,1667.578124999999
0.04920697212219238,72.79999999999997,60641.01562499998
0.04964184761047363,1032.3812499999997,56560.54687500001
0.0660548210144043,977.7687500000001,-68513.28124999997
0.0665273666381836,-63.83124999999995,-68499.609375
0.07331275939941406,-118.22500000000002,-5511.328125000002
0.09102463722229004,-152.0125,-2884.7656249999964
0.09363079071044922,-164.38124999999997,-839.4531250000003
0.11502289772033691,-165.44375,65.23437499999751
0.11544656753540039,-163.3375,406.64062499999966
0.12339568138122559,-158.9375,803.5156249999993
0.13335347175598145,-150.48125000000002,1342.5781249999993
0.1434314250946045,-137.45625,1866.7968750000002
0.16633200645446777,-120.61250000000001,2273.0468750000014
0.16701769828796387,-101.08749999999999,2488.28125
0.17354297637939453,-80.80000000000001,2317.1874999999973
0.18346548080444336,-64.01250000000003,1558.984375000001
0.1937568187713623,-55.856249999999996,399.60937500000205
0.21430563926696777,-57.61875,-496.0937499999991
0.21509003639221191,-63.79374999999998,-487.49999999999847
0.22344350814819336,-65.41874999999997,310.15624999999903
0.23340511322021484,-58.83125,1046.093749999998
0.24350523948669434,-48.681250000000006,1154.2968749999982
0.26254916191101074,-40.362500000000026,839.4531250000003
0.26822686195373535,-35.25,473.4375000000037
0.2734262943267822,-32.787499999999966,291.01562500000153
0.28374361991882324,-30.593749999999975,410.9374999999997
0.29340291023254395,-26.21249999999997,544.1406249999947
0.3157792091369629,-21.88750000000006,217.9687499999985
0.31671977043151855,-22.724999999999994,-473.43749999999284
0.32491064071655273,-29.462499999999945,-842.1875000000009
0.33410215377807617,-36.20000000000001,-475.39062500000216
0.343458890914917,-37.06874999999998,235.54687499999937
0.3668670654296875,-32.43125000000002,651.1718749999949
0.3673524856567383,-26.650000000000063,548.0468749999993
0.373532772064209,-23.66250000000003,136.71875000000756
0.38340210914611816,-24.46249999999994,-125.3906249999992
0.3936574459075928,-25.668750000000017,166.40624999999386
0.41373419761657715,-21.80000000000004,973.4375000000073
0.4142265319824219,-10.0937499999999,1785.1562500000027
0.4236795902252197,6.762500000000005,1997.265624999987
0.43351101875305176,21.862499999999894,1395.3125000000023
0.443587064743042,29.087500000000045,389.0625000000092
0.46286654472351074,28.08750000000004,-332.8125000000015
0.4633646011352539,23.76250000000002,-432.0312499999992
0.47354793548583984,21.175000000000054,-120.70312500000324
0.4835836887359619,21.83124999999997,208.2031249999936
0.49395322799682617,24.50624999999995,379.2968749999972
0.5172932147979736,27.899999999999924,413.67187500000034
0.5184469223022461,31.124999999999957,410.54687500000784
0.5257229804992676,34.46875000000005,650.390625000004
0.5349841117858887,41.53125000000002,1337.4999999999982
0.5431673526763916,55.86875000000002,2095.312500000002
0.5615508556365967,75.05625000000005,2239.0624999999964
0.5632901191711426,91.69374999999997,1456.2499999999955
0.5730578899383545,98.35624999999997,-14.453124999997513
0.5831506252288818,91.4625,-1592.1874999999977
0.5933799743652344,72.88125000000001,-2693.749999999998
0.6191327571868896,48.36250000000003,-2977.7343750000023
0.627655029296875,25.23749999999997,-2452.3437500000023
0.6283457279205322,9.124999999999995,-1560.5468749999955
0.6352591514587402,0.2687500000000398,-871.4843749999985
0.6441411972045898,-4.818749999999983,-512.5000000000025
0.665095329284668,-7.93125,-94.14062500000264
0.6662862300872803,-6.325000000000025,808.5937499999993
0.6741642951965332,5.00624999999999,2078.5156250000027
0.6839370727539062,26.931250000000016,2998.4374999999995
0.6941173076629639,52.98124999999998,2989.8437499999986
0.7141449451446533,74.76875,2233.9843750000027
0.7147550582885742,88.72500000000002,1306.640624999999
0.7239296436309814,95.67499999999998,543.7499999999975
0.7338001728057861,97.42499999999998,34.76562500000124
0.7440586090087891,96.23125,-214.84374999999912
0.7638213634490967,93.9875,-403.12500000000017
0.7642536163330078,89.78125,-807.8124999999998
0.7741856575012207,81.0625,-1301.5625000000011
0.7839324474334717,68.95624999999998,-1368.7500000000002
0.7940633296966553,59.162499999999994,-828.1249999999982
0.8169262409210205,55.70625000000001,-100.39062499999973
0.8180193901062012,57.55625,416.01562499999824
0.8279366493225098,62.36249999999998,701.1718750000022
0.8341407775878906,68.77500000000003,746.875000000001
0.8461737632751465,74.3125,367.5781249999961
0.8659193515777588,74.65624999999997,-528.5156249999998
0.8664901256561279,65.85625,-1726.1718749999977
0.8738291263580322,47.03750000000001,-2780.4687500000005
0.8838412761688232,21.36874999999999,-3301.9531249999995
0.8939626216888428,-5.793749999999986,-3104.687499999998
0.9134011268615723,-28.306249999999977,-2128.125000000001
0.9138617515563965,-39.84375000000001,-583.2031250000007
0.9237837791442871,-37.63749999999999,906.2500000000007
0.9338927268981934,-25.343749999999996,1758.2031249999995
0.9448249340057373,-9.506249999999994,1843.749999999998
0.954296350479126,4.1562499999999725,1233.5937499999975
0.9694650173187256,10.231249999999969,-7.031249999997491
0.9774870872497559,4.043750000000013,-1991.0156249999984
0.9836905002593994,-21.625000000000004,-6715.624999999999
0.9936587810516357,-103.40624999999997,-22064.453124999996
1.014369010925293,-374.65624999999994,-66399.21875000001
1.015092372894287,-1165.7937500000003,-169857.421875
1.024296522140503,-3092.375,-367019.53125
1.0339257717132568,-7038.10625,-677355.0781249999
1.0440680980682373,-13930.056249999998,-1082520.3124999998
1.0729765892028809,-24358.431249999998,-1525087.5000000002
1.0737512111663818,-38331.45625,-1941651.5625
1.0745861530303955,-55424.85625,-2302646.484375001
1.0880448818206787,-75173.80000000002,-2603492.9687499995
1.105189323425293,-97080.74375,-2806291.4062499977
1.1057145595550537,-120074.46249999998,-2853576.171875
1.1254339218139648,-142737.9625,-2788889.843750002
1.1260008811950684,-164696.7,-2705952.343750001
1.1358857154846191,-186033.2,-2405800.781250002
1.1533253192901611,-203189.51250000004,-1286362.1093749953
1.153942346572876,-206614.99374999994,1107273.0468750051
1.175422191619873,-185473.14374999996,4393093.359374994
1.1760623455047607,-136325.50000000003,7356311.718749999
1.1849849224090576,-67772.15624999997,8731029.687500004
1.2012379169464111,3370.975000000044,8072486.71875
1.205474615097046,61387.63125000003,5948730.078124995
1.226471185684204,98550.65624999997,3363323.4374999925
1.2270588874816895,115200.8062499999,1128479.2968749998
1.2350695133209229,116606.32499999997,-283836.32812499127
1.254340648651123,110659.42500000005,-680103.5156249991
1.258652687072754,105724.66874999998,-189594.53125000527
1.2730906009674072,107625.91249999996,726516.7968750029
1.2750482559204102,117348.93750000003,1495350.3906250035
1.2853443622589111,131551.51875000002,1757839.4531249977
1.295158863067627,145474.36875,1501972.6562499981
1.3143424987792969,155583.08125,935246.0937499981
1.315983772277832,160438.30624999997,296253.1250000011
1.3249752521514893,160323.13125,-249203.9062499989
1.334998607635498,156451.04374999998,-631267.1874999997
1.3449811935424805,150222.85625,-854955.8593749988
1.3548901081085205,142771.75,-962890.625
1.3707749843597412,134816.60625,-1003794.9218750009
1.38057541847229,126711.03124999999,-1015387.4999999998
1.3851430416107178,118570.40625000001,-1019746.8749999971
1.394901990890503,110395.08125000003,-1026165.2343750038
1.4194715023040771,102151.76249999995,-1035694.1406250043
1.419996738433838,93823.97499999996,-1044446.8749999978
1.4269351959228516,85440.61249999999,-1047351.9531249985
1.4349653720855713,77066.34374999999,-1042141.0156249958
1.445105791091919,68766.35625000006,-1030109.374999995
1.4553494453430176,60584.593750000065,-1014221.0937500022
1.471250295639038,52538.81875000002,-997757.0312500034
1.4812204837799072,44620.48125000001,-983051.1718750049
1.485029935836792,36809.99999999994,-969585.1562500054
1.495091438293457,29107.118749999925,-953384.7656249959
1.520158052444458,21555.843750000007,-928829.2968749942
1.520803451538086,14245.850000000019,-891616.4062500015
1.5300490856170654,7289.9812499999825,-840095.7031250016
1.5349712371826172,804.3187499999931,-774482.812499997
1.545100212097168,-5101.743749999969,-697982.4218749969
1.5707728862762451,-10363.399999999956,-619991.4062500013
1.5714571475982666,-15021.60624999999,-554264.4531250077
1.581934928894043,-19231.63125000008,-510460.1562500052
1.5864882469177246,-23188.968750000073,-487208.9843749945
1.5949251651763916,-27026.97499999999,-473380.8593749911
1.6157457828521729,-30763.06249999993,-456894.14062499645
1.6167891025543213,-34337.281249999935,-433380.07812500495
1.6250371932983398,-37697.14375000001,-405193.359375005
1.6347095966339111,-40820.375000000015,-371474.99999999674
1.644836664199829,-43640.74374999996,-322715.6250000007
1.6661362648010254,-45983.825000000026,-249763.67187500864
1.6667017936706543,-47636.962500000096,-158225.7812499961
1.676621675491333,-48515.43749999996,-70419.53124999236
1.6844923496246338,-48763.674999999974,-11459.765625005275
1.6950047016143799,-48698.79375000005,8053.124999999909
1.7149744033813477,-48634.824999999975,-99.21874999463398
1.7155821323394775,-48700.38124999996,-10330.468750002183
1.7244322299957275,-48800.11250000001,-6000.3906250044565
1.7355732917785645,-48796.38750000003,3864.4531250006366
1.7456214427947998,-48738.28125,-5056.2499999955435
1.7699055671691895,-48877.28749999996,-45795.31249999718
1.7704203128814697,-49471.006249999955,-107036.71875000282
1.7809123992919922,-50589.87500000001,-162828.51562500355
1.7859020233154297,-52076.26250000001,-190559.37500000116
1.7953171730041504,-53638.825000000026,-180583.2031249997
1.815331220626831,-54965.59375000001,-134074.99999999756
1.8242318630218506,-55784.02499999999,-58652.734374998545
1.8252677917480469,-55904.037499999984,32192.968749998727
1.8355162143707275,-55268.93750000001,120967.1874999981
1.8453850746154785,-53968.562500000015,192037.89062500116
1.8676633834838867,-52196.33124999999,236283.98437500116
1.8683280944824219,-50188.018749999996,251979.68749999927
1.878370761871338,-48164.65625,244410.15625
1.885174036026001,-46277.456249999996,224339.84375
1.8952689170837402,-44575.21875,203438.67187500017
1.916151523590088,-43022.43749999999,188805.85937500017
1.9168157577514648,-41554.325,181011.71874999953
1.9266104698181152,-40126.25,176380.46874999919
1.9354033470153809,-38732.23750000001,171260.54687500073
1.945410966873169,-37386.08124999999,165504.68750000026
1.968001365661621,-36084.162500000006,161891.7968749988
1.9685564041137695,-34795.81250000001,162319.14062500073
1.9788131713867188,-33487.056249999994,166348.82812500064
1.9853298664093018,-32134.231249999997,173177.34374999985
1.9953513145446777,-30716.218749999996,182409.3749999988
2.0172219276428223,-29215.681250000016,192583.2031250004
2.0177319049835205,-27634.88749999999,200911.3281250022
2.028205156326294,-26001.09999999998,205242.18749999953
2.0354936122894287,-24351.012499999997,205730.85937499694
2.045262336730957,-22709.40625000003,204378.12499999994
2.055752992630005,-21080.962499999998,203250.39062500492
2.0689332485198975,-19457.39999999995,203321.4843749995
2.081803560256958,-17827.818750000006,204990.62499999354
2.0853610038757324,-16177.550000000054,210216.40625000157
2.0954151153564453,-14464.35624999998,224742.5781250066
2.117887258529663,-12581.668749999948,256702.3437499963
2.126142978668213,-10357.11875000004,308269.92187499505
2.1266562938690186,-7649.350000000027,364626.1718750025
2.1353251934051514,-4523.099999999999,393573.4375000024
2.1451854705810547,-1352.1749999999884,362844.14062500047
2.155196189880371,1282.4062500000082,263393.7499999988
2.168471097946167,2862.124999999992,119614.0624999984
2.1814262866973877,3196.2312499999825,-22030.07812499891
2.186016321182251,2509.6437500000093,-117935.54687499607
2.195127487182617,1309.2625000000453,-148017.9687500005
2.218316078186035,141.35625000000118,-119558.20312500265
2.219052314758301,-603.6687499999971,-56594.92187499993
2.230083465576172,-764.1624999999976,14364.453124997566
2.2353198528289795,-373.837500000036,74379.29687499789
2.245408535003662,425.9062499999686,115436.32812500348
2.2550878524780273,1473.1437500000197,138044.14062500215
2.267646551132202,2634.612500000003,146480.4687499992
2.278169870376587,3816.831250000007,145488.67187500035
2.286241054534912,4962.431250000009,139213.67187499808
2.295933246612549,6044.249999999976,131055.85937499949
2.3168435096740723,7059.325000000001,123529.68750000314
2.3173446655273438,8020.725000000027,117895.31249999993
2.3289794921875,8945.65,113944.53124999876
2.3361191749572754,9843.837500000007,110147.26562499891
2.3460569381713867,10708.006249999982,104454.2968749979
2.3574118614196777,11515.106249999973,96151.56250000109
2.3693947792053223,12246.43125,86757.81250000012
2.382382392883301,12903.231249999975,78183.98437500207
2.3868210315704346,13497.375000000033,70962.89062500466
2.395846128463745,14038.63750000005,65008.20312499661
2.416102886199951,14537.506249999979,60737.499999994725
2.4167518615722656,15010.437499999965,58535.54687500127
2.426032304763794,15474.074999999999,57508.203125003434
2.4362921714782715,15930.56875000002,55320.70312500002
2.4458529949188232,16359.20625,49988.28124999841
2.4672751426696777,16730.381249999995,41786.32812500109
2.4678139686584473,17027.787500000017,32565.624999999953
2.478050947189331,17251.431249999994,23407.03124999868
2.485882043838501,17402.299999999996,13617.578125000364
2.4959559440612793,17469.3125,2056.6406249997726
2.5203866958618164,17435.206249999992,-10758.203125000364
2.5208914279937744,17297.181249999994,-22378.515625000317
2.5327682495117188,17077.149999999987,-30514.843749999727
2.536435604095459,16808.94375,-34883.593749999134
2.545842170715332,16519.0125,-37022.2656249997
2.567826747894287,16216.587500000003,-38905.078124999476
2.5684731006622314,15896.53125000001,-41269.531250000226
2.5786633491516113,15556.275,-42528.90625000032
2.58589506149292,15216.068750000004,-39489.843750000204
2.5957837104797363,14924.437499999996,-29429.687500000342
2.6157710552215576,14745.193749999999,-12128.515624999294
2.616415023803711,14730.381250000008,8969.140625000022
2.629380702972412,14888.699999999999,27826.953124999476
2.6356258392333984,15175.6125,39282.81249999986
2.6456210613250732,15517.224999999997,41454.68749999998
2.668091297149658,15838.887499999999,34932.42187500016
2.6686129570007324,16076.14375,21504.29687500025
2.680342197418213,16182.956250000003,4195.70312500025
2.688263177871704,16143.275000000003,-13385.156250000477
2.695460796356201,15968.793749999995,-29135.546875000273
2.7165327072143555,15677.106249999999,-43806.249999999636
2.717130661010742,15267.893750000001,-59560.15624999998
2.729140281677246,14724.14375,-76616.01562500016
2.7352607250213623,14042.037499999999,-91723.43750000004
2.745378017425537,13256.568749999999,-100375.0
2.7674267292022705,12436.037499999999,-100008.98437499984
2.768019199371338,11656.425000000001,-91210.54687499985
2.779388427734375,10976.66875,-77337.49999999997
2.785963773727417,10419.025000000001,-63466.796875
2.7953667640686035,9961.2,-53911.71874999998
2.816781997680664,9556.437500000002,-49029.68750000025
2.8172457218170166,9176.724999999997,-43750.39062500014
2.829451322555542,8856.43125,-28792.187499999614
2.836338520050049,8716.050000000003,4941.40625
2.84639573097229,8935.49375,58287.1093749992
2.8676395416259766,9648.64374999999,116129.29687499956
2.8682308197021484,10793.562499999993,149342.96875000096
2.879171133041382,12038.131250000006,130576.1718750009
2.886378526687622,12882.781250000007,53521.093749999745
2.8966541290283203,12894.468750000002,-60630.859375001135
2.9168858528137207,11912.687499999989,-174632.42187500067
2.9173696041107178,10100.349999999991,-255143.74999999927
2.930375576019287,7830.387500000001,-287450.78124999866
2.9363629817962646,5501.137500000013,-277058.98437499953
2.946467399597168,3397.4437500000076,-240371.87500000102
2.9679861068725586,1655.1874999999966,-193412.50000000087
2.9685165882110596,302.84374999999386,-146212.89062499974
2.9802536964416504,-684.2187499999994,-103633.2031249989
2.9872379302978516,-1355.2874999999885,-68282.81250000057
2.9964749813079834,-1776.7437500000085,-41847.26562500086
3.01706862449646,-2024.8437500000023,-24603.90624999941
3.017540454864502,-2170.406249999999,-14927.343750000147
3.0291805267333984,-2263.6812500000046,-10185.156249999494
3.036386251449585,-2333.368749999991,-8535.546874999682
3.0464391708374023,-2400.2499999999995,-9628.906250000568
3.068192958831787,-2487.43125,-13424.218749999995
3.068817138671875,-2615.0374999999995,-19013.671875000255
3.080615758895874,-2791.650000000004,-24986.718750000135
3.0869054794311523,-3014.8250000000016,-29699.218749999374
3.0964181423187256,-3266.837499999994,-30605.078124999352
3.11879563331604,-3504.5062499999913,-25095.703125000313
3.119466781616211,-3668.368749999999,-13006.250000001017
3.1304821968078613,-3712.6062500000075,2401.1718749994484
3.1361420154571533,-3629.950000000008,16449.21875000094
3.1463916301727295,-3449.4187499999925,25996.093750000797
3.1690635681152344,-3214.0124999999953,29819.531249999385
3.1695663928985596,-2972.3062500000024,26964.843749999174
3.18147873878479,-2782.5750000000085,17504.29687499988
3.1863913536071777,-2692.2375000000043,5150.390625001222
3.1963396072387695,-2700.168749999989,-3556.6406249998295
3.218446731567383,-2749.1437500000015,-4050.781250001023
3.229004144668579,-2764.9812500000053,2443.359375000398
3.230199098587036,-2710.049999999995,10206.640625000318
3.236248731613159,-2601.675,14130.078124999556
3.24639892578125,-2483.9687500000023,12549.21875000025
3.2692534923553467,-2400.887499999996,4819.921874999778
3.269906520843506,-2406.850000000006,-10830.468750000931
3.2825047969818115,-2574.175000000011,-33939.0624999991
3.2864344120025635,-2949.8749999999914,-57903.90624999907
3.2961769104003906,-3500.637499999996,-73052.73437500048
3.3186891078948975,-4118.718749999999,-74477.73437500029
3.3194262981414795,-4692.281250000001,-65973.04687500042
3.3297135829925537,-5174.287500000006,-55793.359374999905
3.3356544971466064,-5584.974999999999,-48629.29687499968
3.3457202911376953,-5952.356250000001,-42828.124999999774
3.3693628311157227,-6270.224999999996,-35310.15624999958
3.3699538707733154,-6517.318749999994,-25632.031250000295
3.3830459117889404,-6680.337500000001,-13559.76562500058
3.387019157409668,-6734.275000000003,3569.531250000182
3.3969388008117676,-6623.224999999998,28080.078125000342
3.41888165473938,-6284.993749999998,57976.562499999716
3.4198992252349854,-5695.600000000002,86787.89062499993
3.429647207260132,-4896.387499999999,106641.40625000004
3.437044382095337,-3989.3375000000015,112259.76562499991
3.446664810180664,-3100.2312500000003,103505.85937500025
3.46905255317688,-2333.2437499999974,84585.54687499987
3.4695181846618652,-1746.8625000000025,61334.76562499983
3.4823966026306152,-1351.8875,39222.65625000021
3.4869236946105957,-1119.299999999999,22194.14062499991
3.4965574741363525,-996.7812500000015,11798.437499999976
3.518824815750122,-930.5249999999994,7240.625000000108
3.519371271133423,-880.9312499999997,6717.187500000058
3.5303938388824463,-823.0499999999985,9306.250000000076
3.5364863872528076,-732.0312499999985,15852.343749999774
3.546560764312744,-569.4125000000021,27966.406249999796
3.57011079788208,-284.5687500000018,46883.98437500018
3.5705790519714355,180.7312500000009,73287.10937500026
3.5840020179748535,888.0250000000025,104954.2968749999
3.587547779083252,1859.9999999999993,132629.2968749998
3.596529245376587,3010.093749999999,142193.75000000015
3.6197760105133057,4135.100000000001,122925.39062500009
3.6203439235687256,4976.900000000001,70902.34374999983
3.633845329284668,5269.5374999999985,-11407.03125000033
3.6364524364471436,4794.387499999995,-110857.81249999994
3.6465446949005127,3495.8124999999995,-202120.3124999997
3.6701815128326416,1560.4624999999999,-259055.46874999977
3.6706948280334473,-649.0749999999963,-269574.60937499977
3.685230255126953,-2752.7312499999966,-239226.5625000005
3.6863901615142822,-4476.700000000004,-183612.50000000015
3.696521759033203,-5690.531249999999,-119167.5781249997
3.719085216522217,-6383.381249999999,-58340.625000000044
3.719547986984253,-6623.98125,-9042.187499999955
3.731497287750244,-6528.056249999999,24796.093749999898
3.736626148223877,-6227.2437500000015,42942.5781249999
3.7464449405670166,-5840.975,47721.48437500016
3.7694575786590576,-5463.699999999999,42627.34375000002
3.7700648307800293,-5158.9375,31901.17187499993
3.7839388847351074,-4953.28125,20149.21874999999
3.7868235111236572,-4836.55,11691.796875000022
3.7963979244232178,-4766.2125,9969.531250000045
3.8186697959899902,-4677.037499999999,16619.92187499999
3.8192665576934814,-4500.29375,30679.296874999978
3.8318119049072266,-4186.16875,48919.140624999956
3.8364741802215576,-3717.5875000000005,67097.65625000006
3.8465659618377686,-3112.606249999999,80838.28125000004
3.8691368103027344,-2424.1749999999997,86085.93749999993
3.8696606159210205,-1735.23125,80156.64062500003
3.8827104568481445,-1141.6687499999991,62760.54687499999
3.8872947692871094,-731.0625000000001,36052.34374999988
3.89689302444458,-564.831250000001,4329.29687499994
3.9200730323791504,-661.7937500000011,-26018.359374999854
3.928870916366577,-981.1249999999986,-47364.84374999994
3.9294891357421875,-1419.6312500000001,-53795.703125000044
3.936558723449707,-1841.8562499999994,-44168.74999999997
3.9473767280578613,-2126.3312499999997,-22326.171875000084
3.9685652256011963,-2199.0750000000007,4908.593749999965
3.9691321849823,-2047.7937500000003,30164.453125000065
3.9842288494110107,-1716.4437499999997,47772.65625000004
3.9875152111053467,-1283.4312499999996,55168.35937499986
3.9974255561828613,-833.7500000000019,53224.21875000005
4.018464803695679,-431.84374999999875,45480.85937500023
4.019026279449463,-106.05624999999819,36213.67187499991
4.031653165817261,147.5749999999998,28538.281249999905
4.037432670593262,350.5562500000003,23565.23437499991
4.047350168228149,524.6187499999984,20611.718749999894
4.0699450969696045,680.3437499999986,18542.96875000005
4.07042121887207,821.3062499999992,16983.203125000124
4.085339307785034,952.0750000000006,15719.140625000136
4.0872275829315186,1072.8125000000014,13766.796874999933
4.09735107421875,1172.3437499999995,10382.421874999935
4.118476390838623,1238.9312500000003,6733.59374999994
4.119071006774902,1280.0812499999986,5432.421874999917
4.1332244873046875,1325.849999999999,7964.453125000147
4.137361526489258,1407.512500000001,12925.390625000091
4.1474995613098145,1532.6562500000005,16918.74999999999
4.16966986656189,1678.2125000000008,17005.468749999978
4.170141220092773,1804.74375,12688.671874999884
4.182924032211304,1881.231249999999,5845.703124999985
4.18742299079895,1898.2749999999999,-1258.5937499999175
4.197263479232788,1861.0937500000002,-7480.468749999972
4.21903133392334,1778.5875000000003,-12373.046874999956
4.219523191452026,1663.125000000001,-14811.718750000025
4.2340312004089355,1541.6,-11995.312500000082
4.237332344055176,1471.1999999999996,690.6249999999972
4.2471678256988525,1552.6499999999999,28232.42187500003
4.269237995147705,1922.91875,71065.23437500003
4.269973516464233,2689.6937500000004,118032.81249999999
4.283013105392456,3811.44375,145944.53124999994
4.287059545516968,5024.80625,131783.20312500003
4.297040700912476,5919.975,69298.04687500007
4.3190391063690186,6133.575000000001,-24690.234375000044
4.319531202316284,5524.93125,-119562.50000000006
4.336151361465454,4220.575,-187627.34375
4.338088274002075,2522.8937499999997,-215517.96875000006
4.346876621246338,772.2874999999991,-205078.90625
4.3568115234375,-758.3687500000007,-168029.6874999999
4.371915817260742,-1916.1874999999995,-119523.43749999994
4.386620759963989,-2670.7437499999996,-72465.23437500001
4.387126207351685,-3075.63125,-34154.296875
4.396864891052246,-3217.2124999999996,-6618.35937500004
4.42200493812561,-3181.5250000000005,11036.328125000011
4.42255711555481,-3040.6312499999995,20864.84375000009
4.435961961746216,-2847.687499999999,24991.01562499996
4.436657667160034,-2640.775,25026.17187499993
4.446752309799194,-2447.26875,22366.40625000001
4.469999074935913,-2282.9125,18152.34375000003
4.470466375350952,-2156.8312499999997,12644.140624999976
4.486316919326782,-2080.6062500000003,5930.0781249999945
4.486827850341797,-2061.95,-162.10937499997158
4.497951507568359,-2083.2,-2312.1093750000055
4.51978874206543,-2098.94375,1074.6093750000512
4.520311594009399,-2066.006249999999,8435.54687499997
4.535269021987915,-1963.9750000000004,17471.484374999887
4.537964582443237,-1786.4625000000008,26792.968750000084
4.547919988632202,-1535.287499999999,35067.187500000044
4.570945978164673,-1225.3875,40830.468749999956
4.571424961090088,-881.9999999999997,43157.81249999995
4.586644887924194,-534.8625000000009,41769.14062499992
4.5881571769714355,-213.6937500000009,37332.031250000065
4.598121166229248,62.45000000000012,31662.109375000022
4.620640516281128,292.89999999999947,26586.71875000007
4.621219873428345,487.8375000000012,22288.67187500006
4.635935306549072,649.5187500000004,17130.07812499989
4.638001203536987,761.9187499999995,9806.250000000013
4.647841691970825,806.4187500000006,1360.9374999999914
4.670648813247681,783.6937499999993,-5842.578125000109
4.67119574546814,712.9374999999989,-10343.749999999978
4.686677932739258,618.1937499999997,-12287.89062499991
4.688009977340698,516.3312500000003,-12854.296874999949
4.698042154312134,412.5250000000005,-12691.406249999978
4.720499277114868,313.26875000000064,-10954.68750000006
4.721014022827148,237.24999999999952,-7099.21875000008
4.7355852127075195,199.68124999999935,-2503.1249999999404
4.738357067108154,197.20000000000047,1322.6562500000548
4.747969150543213,220.84375000000023,4564.843749999993
4.770998954772949,270.23750000000035,7610.546875000011
4.771509408950806,342.6125000000004,9387.10937499998
4.786972522735596,420.43125000000003,8987.10937499997
4.787638902664185,486.40624999999994,7853.5156249999745
4.797915935516357,546.0874999999996,8251.562499999973
4.820239543914795,618.4312499999995,10091.406250000042
4.820760250091553,707.5500000000003,11344.140625000051
4.8334925174713135,799.9375000000003,10699.999999999989
4.8374433517456055,878.7500000000001,7818.359374999978
4.847317695617676,925.03125,2492.9687499999886
4.872301340103149,918.6374999999999,-4594.140625000023
4.872876405715942,851.5249999999996,-11617.578124999995
4.886670827865601,732.75625,-17050.39062499997
4.887477874755859,578.7187500000001,-20315.234375000022
4.897408485412598,407.7124999999997,-21048.43750000001
4.919409275054932,241.9437499999999,-18891.796874999975
4.919995069503784,105.44375000000005,-13929.296874999996
4.934646129608154,19.074999999999953,-6776.9531249999845
4.937377452850342,-2.9874999999996987,1524.6093750000132
4.947478532791138,43.46875000000016,9711.328124999973
4.972247362136841,152.39374999999987,16685.546874999985
4.973450660705566,310.43749999999994,21658.984374999996
4.987198114395142,498.93749999999983,24345.312500000015
4.987701416015625,699.9625000000002,25917.187500000022
4.997299432754517,913.6125000000002,29897.26562499998
5.0207860469818115,1178.31875,41021.09374999998
5.021312952041626,1569.9499999999998,61087.10937500001
5.034747362136841,2155.7125,84292.96875
5.037437677383423,2918.6375,97700.78125
5.0475099086761475,3718.925,88889.06250000001
5.071386814117432,4340.8625,54784.76562499998
5.071982145309448,4595.48125,3958.593750000034
5.086857557296753,4404.200000000001,-48714.45312499995
5.088193893432617,3816.0500000000006,-90145.3125000001
5.098324537277222,2961.874999999999,-114501.5625000001
5.119078636169434,1984.024999999999,-123245.70312499993
5.119546413421631,989.9437500000001,-120825.78124999985
5.1348206996917725,50.81250000000104,-110646.87500000001
5.1381635665893555,-780.4062500000003,-94874.60937500015
5.148346900939941,-1467.1812500000012,-75973.43749999996
5.171930551528931,-1995.9812499999998,-56049.99999999994
5.172408103942871,-2363.9812500000003,-35617.968750000015
5.18810510635376,-2565.86875,-15291.79687499993
5.188580274581909,-2608.649999999999,2305.078125000051
5.198291063308716,-2528.9874999999993,14124.999999999885
5.22127628326416,-2382.650000000001,19098.828124999953
5.22181248664856,-2223.40625,18353.515625000113
5.2359466552734375,-2088.993749999999,14405.078124999975
5.23813796043396,-1992.9250000000004,10104.687499999925
5.248345613479614,-1927.3187500000004,7378.906250000043
5.271850109100342,-1874.8624999999997,6902.343750000043
5.272319078445435,-1816.8812499999997,8896.874999999995
5.28643536567688,-1732.5124999999998,13753.124999999969
5.289390563964844,-1596.8312500000002,21362.890624999993
5.298367738723755,-1390.70625,30058.984375000022
5.318469762802124,-1115.8874999999998,37208.593749999985
5.319087743759155,-795.3687500000002,40783.20312499999
5.328329563140869,-463.35624999999993,39872.26562500001
5.344162464141846,-157.41249999999997,34744.92187499997
5.348153829574585,92.56249999999966,26966.406249999993
5.374740123748779,274.0499999999999,18367.578125000033
5.375377655029297,386.4437500000002,9733.593750000018
5.378584861755371,429.7875000000002,1050.781249999993
5.3913984298706055,403.2562500000001,-7363.671875000019
5.398752927780151,311.9687499999999,-14125.390625000011
5.421496868133545,177.24999999999991,-17085.937499999993
5.42201566696167,38.59374999999998,-15215.234374999998
5.437618970870972,-66.19375000000005,-10078.124999999993
5.438114643096924,-122.65624999999991,-4472.656249999998
5.44830322265625,-137.75625000000002,-317.96875000000836
5.473108530044556,-127.74375000000005,1630.468750000003
5.4735798835754395,-111.66874999999997,1454.296874999997
5.490192651748657,-104.4750000000001,261.71875
5.4906957149505615,-107.48124999999997,-243.75000000000125
5.497892141342163,-108.37500000000011,592.1875000000076
5.52257227897644,-98.00624999999985,1548.437500000028
5.523136138916016,-83.59999999999967,1265.6249999999786
5.536173343658447,-77.7562500000002,37.49999999996767
5.539239168167114,-83.00000000000018,-1032.81249999998
5.548332691192627,-94.28124999999987,-1277.7343749999784
5.574462890625,-103.44374999999984,-61.32812500000995
5.5750205516815186,-95.26250000000003,3110.546874999981
5.589986562728882,-53.67500000000014,7327.7343750000055
5.590728759765625,21.981250000000063,10517.578125000011
5.597946643829346,114.60625000000002,11289.062500000002
5.621768951416016,202.6062500000001,9703.12499999999
5.622348308563232,269.8562499999999,6637.109374999976
5.637226581573486,308.7999999999997,3509.7656250000105
5.638762950897217,326.01250000000005,2139.0625000000264
5.64885401725769,343.02500000000015,3238.28125
5.6746814250946045,377.82500000000005,5185.937499999987
5.675157785415649,425.99999999999994,5752.3437499999945
5.694850206375122,469.86249999999995,4408.593750000001
5.6954426765441895,496.53749999999997,1680.078125000005
5.69894814491272,496.74375000000003,-2207.0312499999964
5.723405122756958,461.225,-6542.968750000004
5.724731683731079,392.05625,-9609.765625000002
5.739480257034302,307.46875,-10141.40625
5.741502523422241,229.79374999999996,-7793.749999999999
5.748480319976807,182.76875,-1201.1718749999964
5.7770538330078125,210.57500000000002,13394.921874999998
5.777547836303711,397.0875,40040.23437499999
5.778759241104126,851.21875,77147.65625000001
5.795135021209717,1631.45,112075.39062500001
5.798837184906006,2644.425,124494.921875
5.8245158195495605,3623.36875,100012.49999999999
5.825390338897705,4244.625,42348.437500000015
5.841334819793701,4300.94375,-28419.92187500003
5.8419342041015625,3789.9062499999995,-89580.85937500007
5.848560810089111,2867.649999999999,-127850.78124999994
5.8754987716674805,1744.2937500000005,-141143.74999999988
5.876037359237671,609.3500000000009,-134033.984375
5.890188217163086,-400.2499999999998,-113894.53125000003
5.893847465515137,-1212.9624999999996,-88575.00000000007
5.898861646652222,-1817.450000000001,-63778.125000000015
5.924533843994141,-2233.4125,-41446.484374999854
5.925058126449585,-2480.5937499999986,-21250.39062500005
5.9415178298950195,-2573.4187500000007,-3382.0312500001532
5.94206428527832,-2534.706250000001,10680.468750000045
5.948362350463867,-2402.53125,19522.656250000095
5.976259469985962,-2222.3437499999995,22843.75000000003
5.976959466934204,-2037.0312499999995,21297.656249999945
5.979187726974487,-1881.5812500000004,16174.218749999965
5.993545770645142,-1778.24375,9240.234375000015
5.998861074447632,-1733.7375000000002,2524.6093750000114
6.0328240394592285,-1737.85,-1607.4218749999857
6.033667087554932,-1759.45625,-849.6093750000142
6.0510337352752686,-1751.4437500000001,5470.312499999991
6.051488161087036,-1671.93125,15446.484375000011
6.051943063735962,-1504.3,25727.73437500001
6.060523271560669,-1260.2875,33404.296875
6.085548400878906,-969.83125,36950.78125000001
6.086248397827148,-669.0749999999998,36100.78125000002
6.103569746017456,-392.2187499999996,31442.578124999978
6.104379415512085,-165.99375000000015,24125.781249999978
6.109889268875122,-6.206249999999969,15507.81250000005
6.139881134033203,82.13125000000065,6789.453124999955
6.140722751617432,102.42499999999932,-1080.0781250000498
6.161405324935913,64.84999999999985,-7319.5312499999545
6.162107467651367,-14.687499999999964,-11327.343749999996
6.168228626251221,-116.38750000000009,-12924.609375000005
6.170028448104858,-221.48125000000007,-12823.437500000033
6.198177814483643,-321.5625000000006,-12707.421874999956
6.19883918762207,-424.7999999999994,-14092.968749999936
6.199725151062012,-547.0499999999996,-16842.57812500006
6.230700731277466,-694.2812500000003,-19295.703125000004
6.231443405151367,-855.7812499999997,-19636.328124999993
6.232208728790283,-1008.4625000000002,-16588.28125000006
6.25365948677063,-1121.1937500000006,-9573.437499999947
6.254289388656616,-1161.6374999999994,577.7343750000767
6.26111912727356,-1111.9499999999994,11209.374999999965
6.284546136856079,-982.2874999999999,19241.796874999996
6.28525710105896,-804.0812499999994,23337.500000000004
6.303778648376465,-608.8874999999998,24358.20312499992
6.304286956787109,-414.35000000000065,24076.171875
6.310225248336792,-223.66874999999985,23710.54687500007
6.338498830795288,-34.98124999999952,22979.296874999996
6.339045524597168,144.0000000000001,20506.24999999995
6.339515209197998,293.11874999999964,15792.1875
6.360994100570679,396.6750000000001,10384.765625000015
6.361607789993286,459.27499999999986,7051.9531249999545
6.38427996635437,509.5062499999994,8484.765625000002
6.3933799266815186,595.0312499999999,15768.359374999985
6.394302845001221,761.7999999999992,27110.546874999975
6.419078350067139,1028.7999999999995,39011.718750000095
6.419966697692871,1385.9875000000006,48814.453125000044
6.420426607131958,1809.8312500000002,55132.81249999994
6.453525543212891,2268.1124999999997,56272.65624999998
6.4540956020355225,2710.19375,49847.65625000003
6.454582214355469,3065.675,34330.46874999999
6.459430456161499,3259.48125,10353.515625
6.483872890472412,3231.33125,-18836.71874999999
6.484519004821777,2958.09375,-47282.421874999985
6.509490013122559,2474.8125000000005,-67877.34375
6.516388416290283,1872.0562499999999,-75882.03125000004
6.547292470932007,1260.6999999999998,-71601.17187499997
6.547956466674805,726.4375000000002,-59521.87499999999
6.55036735534668,308.3499999999999,-44596.87500000003
6.563647747039795,12.887499999999719,-29210.937499999978
6.564228773117065,-159.02499999999975,-12260.156249999987
6.570356130599976,-183.27500000000006,11397.656249999944
6.5731871128082275,23.337499999999345,49054.68750000003
6.589985609054565,601.6000000000004,101055.85937500006
6.590427875518799,1640.2312500000003,150363.671875
6.599215984344482,3007.4187500000003,166917.57812499994
6.6262757778167725,4310.912499999999,129726.56249999997
6.626798391342163,5083.04375,45570.31250000006
6.644689083099365,5040.0375,-55213.28125000002
6.645318984985352,4199.631249999999,-139176.5625000001
6.649362087249756,2813.2124999999987,-186320.70312500003
6.681243658065796,1218.4999999999989,-193795.31249999983
6.683216571807861,-287.5124999999983,-171082.4218749998
6.683744192123413,-1518.8187499999976,-132767.96875000006
6.703180313110352,-2411.7999999999993,-92012.50000000016
6.703711748123169,-2991.01875,-56526.1718750001
6.709463834762573,-3316.218750000001,-28425.781250000055
6.736886024475098,-3445.831250000001,-7024.609374999926
6.737390518188477,-3428.6124999999997,8879.687500000131
6.755584001541138,-3303.756249999999,20530.859374999978
6.756532430648804,-3100.11875,28967.57812499993
6.7604663372039795,-2840.275,34514.843749999985
6.780015468597412,-2547.8812500000004,36616.406249999985
6.7804577350616455,-2254.4125000000004,34413.28125000002
6.79057765007019,-1997.26875,28213.671875000044
6.8119752407073975,-1802.9937499999996,20266.40625000002
6.812577724456787,-1673.0062499999997,13342.18749999998
6.8201189041137695,-1589.51875,8972.656249999985
6.858162879943848,-1529.44375,7573.437499999997
6.861440658569336,-1468.34375,9354.687499999984
6.86334490776062,-1379.7687500000002,14048.43749999999
6.890320301055908,-1243.5687500000001,20114.45312500001
6.891986846923828,-1057.9375,25219.921875000025
6.8933939933776855,-840.0499999999997,27514.84375000002
6.89426064491272,-617.6999999999997,26074.21874999996
6.919841051101685,-422.86250000000035,21005.859374999964
6.920473098754883,-281.6062500000003,13959.375000000022
6.921268463134766,-199.5125,7430.859375000043
6.93103289604187,-162.71249999999958,2671.484375000034
6.966706037521362,-156.76874999999944,-929.2968750000412
6.967551231384277,-177.58125000000024,-4240.625000000055
6.968306303024292,-224.61875000000032,-7251.953124999989
6.970021963119507,-293.61250000000007,-9491.40625
7.01270318031311,-376.48125000000033,-10417.968750000004
7.01349139213562,-460.3000000000001,-9378.124999999958
7.014444589614868,-526.5312499999997,-5985.156249999956
7.018727779388428,-556.0624999999994,-700.0000000000313
7.055298089981079,-537.7312500000002,4979.296874999928
7.05604362487793,-476.3937500000006,9135.156250000051
7.056854963302612,-391.56874999999934,10832.812500000064
7.085905075073242,-303.06874999999957,10714.843749999924
7.093771457672119,-220.13125000000056,9916.796874999967
7.094417095184326,-144.4000000000001,9134.37500000003
7.095305919647217,-73.9812500000001,8808.984374999996
7.09722900390625,-3.4562500000001606,9032.42187500003
7.1321728229522705,70.53750000000036,9172.26562500001
7.1331565380096436,143.29999999999998,8375.390624999978
7.134197235107422,204.54375000000002,6153.515624999994
7.135390520095825,241.75624999999988,2522.6562499999777
7.164514064788818,244.90624999999966,-1460.1562500000095
7.165365695953369,218.39374999999973,-3787.4999999999445
7.171924114227295,184.30625000000055,-3256.2499999999604
7.172770738601685,166.29375000000036,-668.359375000037
7.205067157745361,173.61249999999995,2245.703124999997
7.205894231796265,202.2250000000003,4265.234374999981
7.2069385051727295,241.85624999999965,4816.796874999973
7.234371185302734,279.2937499999999,4081.640625000048
7.23832893371582,307.1625000000004,3351.1718750000055
7.239800930023193,332.91249999999997,3973.437499999957
7.242974281311035,370.7374999999997,5687.500000000011
7.273284673690796,423.91250000000014,6685.156249999988
7.2760350704193115,477.69999999999953,5323.437499999972
7.280395746231079,509.0874999999997,1827.3437500000432
7.281520843505859,506.9375000000002,-1478.5156249999823
7.312143564224243,485.43125,-2042.5781249999986
7.313091278076172,474.25625000000025,543.7500000000099
7.314403533935547,494.13125000000014,4296.874999999978
7.3447747230529785,543.0062499999999,6773.046874999991
7.345554351806641,602.5,6914.4531249999945
7.3677027225494385,653.6374999999998,5133.203124999987
7.368230581283569,684.6312499999998,2151.17187500001
7.3687427043914795,688.05625,-1355.4687499999786
7.370409727096558,662.9437500000001,-4235.546874999997
7.4051525592803955,620.2875,-5298.437500000013
7.406491279602051,578.1687499999999,-4170.703125000003
7.4073004722595215,553.55625,-905.4687499999972
7.437025547027588,563.68125,5590.234375000001
7.4377121925354,643.0,18396.484375
7.438702821731567,858.025,39344.14062500001
7.442132472991943,1272.5062500000001,63361.32812500001
7.467144727706909,1871.80625,78699.21875000001
7.467719554901123,2531.6937500000004,74648.43749999997
7.476797580718994,3066.1812499999996,48467.578124999956
7.5098607540130615,3307.1749999999997,6599.218750000034
7.5104687213897705,3171.76875,-38619.92187500007
7.512868404388428,2689.2562499999985,-74990.23437499997
7.5409605503082275,1971.9250000000006,-95805.07812499987
7.547218084335327,1156.3750000000007,-100795.31250000006
7.549037218093872,359.19999999999953,-93528.12500000007
7.580681800842285,-340.07500000000056,-78723.04687499999
7.581474542617798,-900.3687500000001,-60783.59374999986
7.5821192264556885,-1312.6124999999984,-42822.26562500003
7.583144426345825,-1585.5250000000005,-26294.140625000124
7.585199594497681,-1733.3187500000004,-12023.046874999878
7.621699333190918,-1777.8937499999986,-1167.187499999997
7.623022079467773,-1751.9937500000003,5662.890624999917
7.655647039413452,-1687.2875,9355.46875000003
7.656521320343018,-1602.3062499999999,11364.453124999969
7.657642364501953,-1505.4562500000004,12355.078124999976
7.688408613204956,-1404.6250000000002,12112.890625000047
7.6893439292907715,-1311.6499999999996,10520.312500000031
7.690274715423584,-1236.2999999999997,8421.484374999964
7.696575164794922,-1176.9062500000002,7017.578124999985
7.697711944580078,-1124.01875,6701.171875000028
7.69845175743103,-1069.6874999999998,7394.9218749999945
7.735412120819092,-1005.7,9294.531249999976
7.736679792404175,-920.9750000000001,12393.35937500001
7.737569808959961,-807.4062499999999,15921.093750000004
7.7632410526275635,-666.2375000000001,18617.187499999993
7.7679102420806885,-509.53125,19487.500000000007
7.769442319869995,-354.43749999999994,18309.765625000004
7.776450157165527,-216.57499999999996,15034.765625
7.8104894161224365,-113.88124999999994,9273.437499999996
7.811321973800659,-68.20000000000003,1644.1406249999986
7.812241315841675,-87.57499999999996,-5239.453125000002
7.813209533691406,-152.03125000000006,-8827.343749999993
7.8141679763793945,-228.81249999999986,-8963.67187500001
7.838695287704468,-295.4500000000002,-7100.7812500000055
7.839390993118286,-342.42499999999995,-4404.687499999976
7.844431400299072,-365.92499999999984,-1567.968750000009
7.872993469238281,-367.5125000000001,725.7812500000042
7.873454570770264,-354.3124999999998,2203.125
7.873953104019165,-332.2625000000001,3354.2968749999673
7.8811867237091064,-300.6437500000003,4741.01562500001
7.909321308135986,-256.40624999999994,6144.531250000028
7.910146474838257,-202.33124999999984,6670.703124999983
7.910673379898071,-149.6750000000002,5539.8437499999945
7.93326210975647,-113.69374999999992,2951.1718750000186
7.933773040771484,-102.45624999999991,421.484375000003
7.940979242324829,-106.94999999999987,-191.4062499999982
7.970906734466553,-105.51874999999988,1757.4218749999702
7.971681594848633,-78.83125000000035,5402.343749999982
7.972317695617676,-19.08125000000016,9200.000000000042
8.011101484298706,68.3687500000003,11367.968750000011
8.01176142692566,162.80625000000003,10360.546874999958
8.012418746948242,234.13749999999965,6357.812500000005
8.013087034225464,264.5312500000001,1968.7500000000462
8.05008339881897,265.6375000000004,318.75000000000495
8.050852298736572,269.6312500000002,2030.8593749999736
8.05146074295044,298.13124999999997,4332.421874999965
8.052893161773682,338.94999999999965,3949.2187499999823
8.080442428588867,361.3187499999997,810.9375000000227
8.081172227859497,351.925,-2364.8437499999845
8.081870079040527,323.48124999999993,-3522.656250000004
8.09492039680481,295.56249999999994,-2482.421874999975
8.118295907974243,283.76250000000033,252.7343750000064
8.118771076202393,299.60625000000005,3657.4218749999723
8.12521481513977,342.2812499999999,5688.671874999997
8.165942430496216,390.625,4553.515625000003
8.166807651519775,415.13749999999993,701.9531250000028
8.16751503944397,401.85625000000005,-3252.3437499999977
8.1687650680542,363.09999999999997,-4793.749999999999
8.17097783088684,325.15625000000006,-3585.5468749999986
8.215957880020142,305.73125,-1394.9218750000014
8.216780424118042,302.83750000000003,-393.35937499999926
8.218075513839722,299.4375,-1669.531250000002
8.219292402267456,276.125,-4337.5
8.224508285522461,230.0375,-5754.687500000001
8.255790948867798,184.04999999999998,-3680.468749999999
8.256277084350586,171.15,2107.8125000000014
8.256886005401611,217.775,11362.890624999996
8.280805110931396,352.95624999999995,25268.359375000004
8.281258583068848,622.06875,44287.50000000001
8.281803131103516,1061.55625,63594.92187499997
8.315532207489014,1639.5874999999996,72999.21874999999
8.316095113754272,2229.54375,63675.39062500004
8.31658673286438,2658.39375,35024.609374999985
8.36431360244751,2789.9374999999995,-4783.203125000028
8.36499309539795,2581.8624999999997,-43503.51562499992
8.365647077560425,2093.881250000001,-70821.87499999997
8.366402626037598,1448.7125,-82991.40625000012
8.36707878112793,766.0187499999988,-83161.71874999994
8.373294591903687,118.12500000000092,-76793.35937499987
8.408492088317871,-462.67499999999905,-67069.92187500004
8.40922999382019,-954.9937499999999,-54566.796875000095
8.409874439239502,-1335.7437500000005,-39434.37500000007
8.411800622940063,-1585.943750000001,-22903.515624999927
8.455213069915771,-1702.1999999999994,-7309.374999999904
8.455861806869507,-1702.8937499999995,5115.234374999943
8.456464767456055,-1620.3562500000003,13425.390624999964
8.457584381103516,-1488.0875,17596.48437500002
8.473789930343628,-1338.8125,17764.062500000007
8.47548246383667,-1203.8625,14740.62500000001
8.50852108001709,-1102.9624999999999,10303.906249999996
8.515798091888428,-1039.0,6231.640624999997
8.516488790512085,-1003.2562499999999,3664.0625
8.517070055007935,-980.375,3165.23437499999
8.52402400970459,-952.6125000000001,4667.96875
8.562960147857666,-905.6875,7573.828124999998
8.563441038131714,-831.4312500000001,11241.796875000013
8.564001560211182,-725.8187499999998,15139.843750000004
8.564504623413086,-589.19375,18280.078124999978
8.571436405181885,-433.33750000000015,19028.906250000007
8.604230642318726,-284.7312499999999,16507.81250000001
8.60502576828003,-169.21249999999998,11985.156249999989
8.605816841125488,-92.96875000000004,7571.093750000006
8.64182186126709,-48.07499999999987,3983.203125000001
8.642473220825195,-29.237500000000026,811.3281249999966
8.64311170578003,-35.09374999999992,-2098.046874999995
8.647496700286865,-62.80624999999995,-4506.250000000003
8.688749313354492,-107.19374999999998,-6167.578125000018
8.689504146575928,-161.48750000000024,-6858.593750000002
8.690318584442139,-216.93125,-6207.42187499998
8.691202402114868,-260.8062499999999,-4121.484375000014
8.692109107971191,-282.8750000000002,-1631.640624999985
8.744304895401001,-286.9124999999997,-185.15624999998437
8.745378017425537,-285.8375,44.92187499996447
8.748257875442505,-286.19375000000025,101.95312499999787
8.752159595489502,-284.20625,824.6093750000085
8.792179584503174,-273.0000000000001,2269.531250000014
8.792932033538818,-247.89374999999978,4189.843750000005
8.793609857559204,-205.96250000000003,6291.406249999964
8.799679040908813,-147.23125000000036,8032.0312500000155
8.800897359848022,-77.44999999999979,8816.796875000031
8.837646961212158,-6.162499999999849,8230.468749999996
8.838138103485107,54.23750000000016,6094.1406249999945
8.838731050491333,91.34375000000006,3269.5312499999854
8.839205503463745,106.54999999999993,1741.7968750000066
8.839829683303833,119.21250000000016,2532.03125000001
8.841382026672363,147.06250000000009,4406.640624999986
8.870946168899536,189.71874999999994,5416.015624999993
8.87157940864563,233.71874999999997,4661.718749999988
8.872233867645264,264.30624999999975,2256.640625000001
8.88131856918335,269.825,-1058.5937499999768
8.92988920211792,247.36875000000012,-3639.062500000012
8.930686712265015,211.5999999999998,-3869.140625000016
8.931410312652588,185.46249999999986,-2043.7499999999832
8.932137966156006,178.90000000000006,112.89062500002878
8.934256076812744,187.26875000000032,1693.7499999999925
8.97139859199524,205.99999999999994,3145.7031249999545
8.972070217132568,237.5999999999996,5025.390625
8.972790002822876,286.40624999999994,6866.796875000039
8.97770881652832,347.4687500000002,7262.500000000006
9.060457706451416,402.60625000000005,5416.015624999989
9.0690176486969,434.12500000000006,2365.6249999999977
9.069767713546753,440.45625,-131.64062500000995
9.070260763168335,432.0187499999999,-1477.7343750000007
9.070784330368042,416.8125,-2214.0624999999936
9.07145619392395,396.59375,-2813.281249999999
9.072231769561768,371.8,-3341.0156250000005
9.072856664657593,343.1375,-3925.0000000000005
9.073412656784058,309.0,-4644.140624999998
9.141558647155762,268.83125,-4606.249999999999
9.142094373703003,235.3,-1613.2812500000018
9.142531394958496,243.01874999999998,6908.984374999999
9.143102884292603,345.84375,22428.515625000004
9.14739203453064,601.875,43530.46875000001
9.14807939529419,1042.3312500000002,64342.96874999998
9.1487557888031,1631.3624999999997,75600.0
9.149647951126099,2251.93125,69939.06250000003
9.221933841705322,2750.3875000000003,47300.78125
9.222518920898438,3008.74375,14337.109374999982
9.223036766052246,2979.78125,-20873.04687500006
9.223489761352539,2674.774999999999,-52379.6875000001
9.224153757095337,2141.7062499999984,-76149.21874999996
9.224980592727661,1456.3874999999998,-89185.9374999998
9.225688934326172,714.7312500000015,-90500.78124999993
9.22627592086792,8.37500000000091,-82293.75000000016
9.29783296585083,-601.968750000001,-68583.59375000012
9.298365116119385,-1088.962500000001,-52780.85937499987
9.29891061782837,-1446.462499999999,-37191.015624999935
9.3024320602417,-1684.01875,-23518.750000000095
9.3030366897583,-1822.7625000000005,-12536.328124999982
9.303607702255249,-1884.5999999999997,-3753.5156249999773
9.304181814193726,-1882.8187500000001,3885.1562500000086
9.304830074310303,-1822.4374999999995,10726.17187500002
9.313559532165527,-1711.1999999999998,15574.218749999956
9.391831636428833,-1573.2500000000002,16296.874999999985
9.392420768737793,-1450.45,11929.687500000015
9.401076078414917,-1382.375,4567.578124999997
9.401834726333618,-1377.36875,-1351.9531250000084
9.402646541595459,-1404.0062500000001,-2243.3593749999973
9.403506517410278,-1413.2625,2354.296875000017
9.404608964920044,-1366.3374999999999,10373.046875000015
9.47217059135437,-1247.2937499999998,18762.890624999996
9.472710371017456,-1066.13125,24554.296874999993
9.473219871520996,-854.425,26026.562499999996
9.476559162139893,-649.70625,23296.093749999993
9.478086948394775,-481.68750000000006,17763.671875
9.478901624679565,-365.48749999999995,11620.703124999995
9.479930400848389,-295.75625000000014,6875.390625000005
9.527665376663208,-255.48124999999987,3779.6875000000155
9.528469562530518,-235.2812499999999,1505.078124999976
9.529231548309326,-231.40000000000026,67.96875000000924
9.529917001724243,-234.19374999999974,-259.374999999979
9.530762672424316,-235.54999999999993,-103.51562500005151
9.531718492507935,-235.85000000000056,-66.40625000001066
9.532573938369751,-236.6125000000001,-41.7968749999158
9.573270559310913,-236.51874999999922,87.89062500000178
9.573948860168457,-235.20625000000007,80.07812499993783
9.578741312026978,-235.2375000000002,-273.04687499995947
9.580445289611816,-239.57499999999942,-766.015625000005
9.581345081329346,-247.4937500000003,-812.1093750000358
9.629862308502197,-252.56875,59.76562500004157
9.630679845809937,-246.53749999999962,1708.203124999974
9.631810188293457,-225.2375000000004,3723.8281249999386
9.6336190700531,-186.9562500000006,5938.28125000001
9.674552202224731,-130.22500000000025,7927.343750000037
9.675805807113647,-60.11875,8900.781250000044
9.68066692352295,12.187500000000462,8685.937500000016
9.681547403335571,78.85625000000029,7693.7499999999445
9.722009897232056,135.28749999999957,5965.624999999975
9.722835302352905,174.3062499999999,3506.250000000044
9.723517894744873,191.38750000000027,1410.156250000016
9.724395513534546,196.86875000000015,1303.1249999999604
9.726051568984985,212.23749999999964,3201.5624999999764
9.727813482284546,248.09374999999977,5181.640625000037
9.762393951416016,295.14375000000024,5621.875000000053
9.76308274269104,338.0437500000006,4656.640624999987
9.763893842697144,369.65000000000003,3471.8749999999295
9.769786357879639,393.5937499999995,2784.375000000004
9.770820379257202,414.2000000000001,2127.734375000024
9.808218002319336,427.6374999999999,1108.593749999997
9.809046506881714,431.93750000000006,523.4375000000284
9.809709072113037,436.01250000000033,1030.0781250000027
9.810441732406616,448.4187500000001,1884.7656249999538
9.848706245422363,466.1687499999996,1839.4531249999736
9.849483251571655,477.8499999999997,566.4062500000391
9.852655410766602,475.2312500000002,-836.3281249999694
9.85652780532837,464.46875000000017,-1017.9687500000156
9.85742473602295,458.94374999999997,-407.8125000000199
9.909327507019043,457.94374999999985,-658.9843750000028
9.910039901733398,448.3999999999999,-1862.49999999999
9.910680055618286,428.14375,-2487.1093749999923
9.911443710327148,408.60625000000005,-1970.703125
9.912875413894653,396.6125,-1280.859375000002
9.955501317977905,388.1125,-1226.5625000000036
9.956153154373169,376.98749999999995,-1730.0781249999986
9.956872940063477,360.43125000000003,-2394.5312499999964
9.960906267166138,338.675,-2464.062500000004
9.962707042694092,321.00624999999997,133.98437500000426
9.963533401489258,340.8187500000001,9117.96875
9.996333837509155,466.89374999999995,27755.078124999985
9.996941566467285,784.8999999999999,54312.10937500001
9.997444152832031,1335.8875,79374.21875
10.0275559425354,2054.8875,89974.21874999999
10.028648376464844,2775.475,78297.65625000001
10.032944917678833,3307.65,46982.03125000001
10.03465747833252,3527.1875,6369.921874999988
10.1060631275177,3409.56875,-32628.90625000003
10.106919527053833,3005.1249999999995,-63097.26562500006
10.108207941055298,2400.012499999999,-82312.89062500001
10.169174671173096,1688.1187499999992,-90650.39062499991
10.16981816291809,949.6062500000004,-90674.60937499993
10.170331954956055,237.32500000000022,-85340.62500000006
10.17445993423462,-415.8437500000005,-76047.26562499997
10.175173044204712,-979.4312499999993,-63136.32812499992
10.17650842666626,-1426.0249999999992,-47779.29687500004
10.177485704421997,-1743.8999999999999,-32122.65624999999
10.206918478012085,-1939.987499999999,-18208.203125000055
10.207420349121094,-2035.2312500000007,-7257.812500000127
10.208518266677856,-2056.112500000001,640.2343750001052
10.209935665130615,-2024.987499999999,5973.437500000074
10.234960556030273,-1960.5375,8778.906249999949
10.235448360443115,-1884.5249999999999,8760.937500000025
10.236128807067871,-1820.3624999999995,6301.953124999968
10.242769479751587,-1783.6937500000004,3016.7968749999545
10.243561029434204,-1772.0937500000002,1351.1718750000198
10.2453773021698,-1762.075,3118.3593750000255
10.275712490081787,-1722.1999999999998,8058.9843749999945
10.276195049285889,-1633.1312500000001,14238.671874999995
10.276890993118286,-1494.38125,19778.515625000025
10.277411460876465,-1316.6749999999997,23646.484375
10.30669093132019,-1116.0375,25125.390624999985
10.307307004928589,-914.6687499999999,23775.390625
10.308159351348877,-735.6312499999999,20281.64062499997
10.313577890396118,-590.1625000000004,16168.749999999978
10.344778060913086,-476.93125000000026,12335.156250000036
10.345500230789185,-392.7999999999998,8851.953125000033
10.346120119094849,-335.2999999999997,5974.218749999981
10.377132177352905,-297.2125000000001,4228.125000000002
10.377629041671753,-267.6499999999997,3423.4375000000146
10.378351926803589,-242.43749999999986,2294.5312499999523
10.38376760482788,-230.93750000000045,-184.37499999998684
10.419200897216797,-245.38749999999965,-3269.5312499999573
10.4200599193573,-283.2499999999998,-5146.093750000024
10.420867204666138,-327.725,-5011.328125000048
10.451932668685913,-363.43125000000055,-3362.1093750000346
10.452673435211182,-381.5187500000006,-653.5156249999332
10.457454681396484,-373.8874999999995,2838.6718750000314
10.458144664764404,-336.1000000000001,6117.187499999954
10.494319200515747,-276.0125000000002,7739.453125000018
10.495728254318237,-212.26874999999978,7091.796875
10.496725082397461,-162.54375000000022,4937.10937499997
10.497687101364136,-133.27500000000026,2708.5937500000437
10.527466535568237,-119.20624999999951,1495.7031250000261
10.528088569641113,-109.34374999999984,1665.6249999999488
10.528547048568726,-92.55625000000033,2858.2031250000136
10.533427953720093,-63.61249999999963,4048.828125000014
10.557794570922852,-27.775000000000105,4165.624999999951
10.558358907699585,3.037499999999582,3046.093750000034
10.565976619720459,20.96250000000044,1719.531250000017
10.6031494140625,30.549999999999855,1741.796874999979
10.607128381729126,48.831250000000104,4001.5625000000555
10.60892915725708,94.57500000000074,7704.296874999962
10.609904050827026,172.09999999999948,10853.515624999922
10.648878574371338,268.2312499999995,12175.781250000073
10.649914741516113,366.91250000000065,11943.359375000018
10.650903224945068,459.32499999999976,10746.874999999935
10.651765584945679,538.8624999999996,8673.82812500006
10.684427499771118,598.1062500000007,6051.953125000005
10.685946464538574,635.6937499999997,3733.593749999933
10.691203594207764,657.8437499999997,2094.921875000047
10.6920325756073,669.2125000000004,633.203125000037
10.73132610321045,667.9750000000003,-1114.0625000000384
10.732128858566284,651.3874999999998,-2887.500000000017
10.733214616775513,621.775,-4036.7187499999773
10.734385013580322,586.8000000000002,-4067.9687500000127
10.736228942871094,556.6874999999998,-2987.109375000017
10.768290281295776,539.0062499999999,-1572.2656249999857
10.776324272155762,531.53125,-1063.67187499999
10.777395725250244,521.9875000000001,-2175.390624999995
10.778330564498901,496.7250000000001,-4581.250000000011
10.823241233825684,448.6874999999999,-7080.078125000007
10.824321508407593,383.44374999999997,-7752.3437499999945
10.825079441070557,324.65,-4535.156249999996
10.825975179672241,310.88125,4002.343750000005
10.826948404312134,388.68750000000006,18990.624999999993
10.863783359527588,614.7312499999999,40977.343749999985
10.86457872390747,1044.3249999999998,66743.35937500001
10.866490125656128,1682.625,87305.85937500001
10.874527931213379,2441.21875,92127.73437500001
10.875562906265259,3156.6687500000003,76250.390625
10.911271095275879,3661.225,43331.25000000001
10.911880016326904,3849.9687500000005,2715.234375000051
10.91308856010437,3704.6687500000007,-35897.26562500007
10.914199352264404,3275.6124999999993,-66235.93750000006
10.94154691696167,2644.8937499999997,-86227.73437499997
10.944870948791504,1895.9687499999998,-96452.73437500001
10.94554352760315,1101.6499999999994,-98312.89062499993
10.985378742218018,322.96250000000094,-93436.32812499991
10.986032009124756,-393.3312499999992,-83766.7968750001
10.986717939376831,-1017.3062500000008,-70999.60937500004
10.98749828338623,-1529.325,-55920.703124999956
11.024212121963501,-1912.0375000000001,-39226.95312500001
11.024853706359863,-2156.95625,-22580.859375000004
11.025542736053467,-2273.33125,-7922.656249999988
11.026955366134644,-2283.71875,3286.3281250000396
11.052221775054932,-2220.7499999999995,9670.312500000051
11.053490161895752,-2128.993749999999,10344.140624999995
11.057796955108643,-2055.2437499999996,6294.531249999949
11.08916974067688,-2028.28125,850.3906249999602
11.089717626571655,-2041.6375000000003,-1606.250000000017
11.090904712677002,-2053.9812500000003,1656.2500000000284
11.093327522277832,-2015.1374999999998,9761.32812500002
11.119757175445557,-1897.8,19160.546874999993
11.120392560958862,-1708.56875,26462.890624999985
11.1244056224823,-1474.3937500000002,30596.484375000004
11.156032085418701,-1219.0249999999999,32481.250000000004
11.156887292861938,-954.6937500000001,32682.03124999997
11.157579898834229,-696.1125000000003,30196.09375000002
11.1840660572052,-471.55624999999986,23958.59375000003
11.184561014175415,-312.7749999999998,14783.984375
11.18761944770813,-235.01249999999985,5359.374999999972
11.222068309783936,-227.02500000000026,-1574.6093750000068
11.22291898727417,-260.20624999999995,-5056.640624999968
11.22367787361145,-307.93124999999975,-6017.968750000019
11.224686622619629,-356.49375000000026,-5878.515625000027
11.250438451766968,-401.9875000000002,-5455.859374999956
11.250999212265015,-443.78749999999957,-5053.5156249999745
11.259315729141235,-482.8437499999998,-4841.406250000041
11.310374736785889,-521.2500000000002,-4573.828125000013
11.311218023300171,-556.025,-3251.953124999986
11.312327861785889,-573.28125,-58.59375
11.313179969787598,-556.9625,4320.7031249999945
11.313881635665894,-504.1500000000001,8205.85937500001
11.344375371932983,-425.6687499999998,10525.781250000033
11.344878911972046,-335.73749999999956,11049.609374999993
11.34544324874878,-248.87499999999994,9675.390624999945
11.346263647079468,-180.93125000000043,6702.3437500000055
11.35457730293274,-141.63749999999985,3400.0000000000146
11.3898286819458,-126.5312500000002,1287.890624999954
11.390371322631836,-121.03125000000058,1043.359375000052
11.390960693359375,-109.83749999999937,2624.6093750000305
11.39610767364502,-79.0375000000001,5843.359374999913
11.423256397247314,-16.343750000000767,9816.015625000007
11.423838376998901,78.01875000000003,12567.57812500009
11.424400806427002,184.73750000000067,12878.515625000031
11.434980392456055,284.0750000000005,11923.437499999965
11.480302572250366,375.5125000000001,11439.843749999955
11.480972290039062,467.1124999999998,11385.156249999976
11.481771469116211,557.6749999999997,10855.859374999998
11.48277735710144,640.8062499999997,9693.750000000002
11.52062726020813,712.7749999999997,7992.187500000028
11.521485090255737,768.6812500000002,5494.5312500000155
11.52642822265625,800.6875,2137.4999999999886
11.527504920959473,802.88125,-1533.59374999998
11.528432369232178,776.1500000000003,-4570.312500000007
11.570024490356445,729.7562499999999,-6140.234375000027
11.57126522064209,677.9062499999999,-5978.1250000000055
11.572519302368164,634.1062499999998,-4454.296874999997
11.606034517288208,606.6374999999999,-2546.4843749999773
11.606581449508667,593.3625000000002,-1617.5781250000084
11.61035704612732,580.7562499999998,-2289.0625000000214
11.611822366714478,556.7374999999998,-3620.703124999984
11.612462282180786,522.825,-4322.656249999991
11.644322156906128,487.575,-4049.218750000005
11.64494252204895,458.03749999999997,-2367.968749999999
11.646106958389282,449.6875,3240.234375000007
11.646605253219604,509.8812500000001,17196.875
11.674685716629028,724.8375,41601.562499999985
11.675143718719482,1175.50625,71317.18749999999
11.675604820251465,1865.9125,94916.79687500001
11.71352243423462,2694.175,101562.10937499997
11.714295864105225,3490.9062499999995,87262.89062499999
11.715017080307007,4090.38125,55964.45312500006
11.715834379196167,4386.337500000001,15923.04687500004
11.742509841918945,4345.150000000001,-24760.93750000001
11.743125677108765,3990.1625000000004,-60211.32812500011
11.747891187667847,3381.768749999999,-87123.04687500006
11.782023906707764,2596.1937499999995,-104756.24999999997
11.782543659210205,1705.6687499999991,-114042.57812499996
11.783297777175903,771.5125,-116008.59374999983
11.813201189041138,-150.46874999999815,-110933.20312500009
11.81408166885376,-1003.4187500000015,-98682.4218750002
11.81513261795044,-1729.3875000000014,-79866.01562499984
11.815992832183838,-2281.274999999999,-57075.39062499988
11.852627038955688,-2642.5937499999995,-34482.42187500006
11.853273153305054,-2832.99375,-15565.234375000016
11.853935241699219,-2891.6375,-1779.296875
11.855040073394775,-2861.4625,6562.1093750000055
11.882984638214111,-2786.6437499999997,9394.140625000062
11.883630990982056,-2711.156249999999,7456.640624999977
11.884755611419678,-2667.3375,3299.999999999926
11.94179630279541,-2658.3562500000003,693.7499999999943
11.943028450012207,-2656.2375,2204.687500000034
11.944713830947876,-2623.0812499999997,7744.921875000017
11.946090698242188,-2532.31875,15391.796874999982
11.948970794677734,-2376.8125,22826.95312499999
11.981233835220337,-2167.0875,28731.250000000004
11.981898069381714,-1917.1125,33458.59375000002
11.982527256011963,-1631.7499999999998,37518.359375
11.991400718688965,-1316.81875,39703.515624999985
11.991993427276611,-996.49375,37864.453125
12.031341552734375,-710.9874999999998,31345.703125000015
12.032227993011475,-494.96249999999975,22025.78124999998
12.032915353775024,-358.5750000000001,12986.718749999958
12.033507108688354,-287.1750000000004,6433.98437499998
12.03476881980896,-255.63125000000042,2585.156249999999
12.089826583862305,-245.81250000000043,62.109375000064304
12.090615272521973,-254.6374999999994,-2392.9687499999463
12.120577096939087,-284.09999999999957,-4513.671875000069
12.122106313705444,-326.8562500000005,-5166.7968750000455
12.122899055480957,-366.7687500000003,-3920.312499999966
12.123713731765747,-389.58124999999995,-1382.0312499999723
12.12565279006958,-388.88124999999985,1493.3593750000007
12.12633991241455,-365.68749999999994,3843.7499999999786
12.126973390579224,-327.3812500000002,5016.406249999995
12.134965658187866,-285.425,4918.750000000027
12.177649736404419,-248.68124999999975,4230.859375000005
12.179232120513916,-217.73124999999993,3826.9531250000327
12.179983377456665,-187.44999999999922,3990.6250000000264
12.181019306182861,-153.8812499999995,4435.546874999863
12.217185258865356,-116.48125000000142,5013.671874999902
12.217892408370972,-73.66250000000107,5916.406250000116
12.22553300857544,-21.818749999999554,6929.296875000102
12.22650933265686,37.20625000000055,7406.64062499996
12.227431535720825,96.68749999999982,7448.046875000003
12.269797325134277,156.3750000000006,7983.593750000017
12.270463466644287,224.4250000000001,9593.359374999944
12.271439552307129,309.8687499999997,11982.812499999996
12.272233486175537,416.15000000000003,13954.68750000001
12.307433128356934,533.1437499999998,13910.937499999998
12.307944059371948,638.725,11517.18750000002
12.30851411819458,717.4187500000002,8258.984374999996
12.314070463180542,770.86875,5794.531250000013
12.31713080406189,810.1312500000004,4799.60937500001
12.36234164237976,847.6625000000001,5047.265624999965
12.363053560256958,890.8874999999998,5624.999999999993
12.363786220550537,937.6625,5724.99999999998
12.36471962928772,982.4874999999995,5172.656249999988
12.365720987319946,1020.4249999999998,3516.4062500000455
12.400573492050171,1038.7500000000002,-101.56249999997868
12.401150226593018,1018.8000000000002,-5078.5156250000155
12.404401540756226,957.49375,-8915.234375000011
12.406549453735352,876.15625,-9851.171875000005
12.451299667358398,799.8749999999999,-8516.015624999995
12.452046155929565,739.9000000000001,-6425.781249999993
12.452717304229736,697.0625,-4762.890625000011
12.45331621170044,663.6937499999999,-4608.203125000003
12.457144498825073,623.33125,-6058.9843749999945
12.500747919082642,566.75,-7138.281250000002
12.501480340957642,509.1187499999999,-4909.375000000005
12.50584602355957,488.19999999999993,3218.7500000000105
12.506864547729492,560.6187500000001,19771.875000000007
12.507455110549927,804.5500000000001,45929.687499999985
12.543984651565552,1295.4937499999999,77585.54687499997
12.544777870178223,2045.9187499999998,104070.31249999999
12.54548692703247,2960.6187499999996,113189.84375000004
12.546388626098633,3856.9562500000006,98891.40625000004
12.574491500854492,4542.88125,64946.093749999905
12.575108289718628,4896.093749999999,21353.515625
12.575696468353271,4884.5375,-23043.749999999818
12.614568948745728,4527.393750000002,-64197.26562500006
12.615143299102783,3857.3812499999995,-100073.04687500022
12.615790605545044,2926.2249999999985,-127145.70312500007
12.616497278213501,1823.0499999999984,-141472.65624999994
12.646081686019897,662.6624999999997,-141718.74999999988
12.646805047988892,-444.44999999999976,-129701.95312499987
12.651033163070679,-1412.5687499999983,-109271.484375
12.655630350112915,-2192.79375,-85185.93750000015
12.70022463798523,-2775.5437500000007,-61214.84374999997
12.701126337051392,-3172.2312499999994,-38624.218749999985
12.702024221420288,-3393.5312500000005,-17623.82812499996
12.703039407730103,-3454.2124999999987,200.78125000000568
12.732166290283203,-3390.3187500000004,12292.578124999834
12.732998132705688,-3257.5312500000014,17000.781250000044
12.739585876464844,-3118.3062499999996,14466.406250000118
12.7430739402771,-3026.0687499999995,7498.046875
12.74521541595459,-2998.3374999999996,1335.156249999983
12.769105672836304,-3004.7062499999997,338.6718749999602
12.769564151763916,-2992.9187500000003,5224.218749999977
12.77790379524231,-2921.11875,14050.390625000035
12.806635618209839,-2768.1124999999997,24476.953124999993
12.810281038284302,-2529.4875,34837.109374999985
12.81096887588501,-2210.71875,43866.40625000002
12.820088148117065,-1827.6249999999998,49765.624999999985
12.869632244110107,-1414.4687500000002,50555.859374999985
12.871037483215332,-1018.73125,45929.29687500003
12.871980428695679,-679.5999999999998,37498.828124999985
12.874565124511719,-418.75000000000017,26837.109375000004
12.91157603263855,-250.20624999999973,14820.312500000042
12.915923595428467,-181.6249999999995,3216.0156249999563
12.917690515518188,-198.75000000000043,-4867.968750000063
12.919103860855103,-259.5125000000005,-7335.156249999974
12.961890935897827,-316.1125,-5403.515624999965
12.962887525558472,-345.96874999999994,-2591.7968749999964
12.963979721069336,-357.58124999999995,-1439.8437500000014
12.965148210525513,-369.00624999999997,-1684.765625000029
13.001393795013428,-384.5375000000004,-1223.046874999966
13.002116918563843,-388.5749999999994,1437.5000000000923
13.002771377563477,-361.53749999999894,5307.421874999882
13.006911993026733,-303.6562500000013,7739.453124999906
13.009228944778442,-237.70625000000044,7488.281250000119
13.010153770446777,-183.8437499999994,6038.671875000067
13.060537338256836,-141.08749999999935,5254.296875000007
13.062135696411133,-99.77499999999928,5250.781249999891
13.062932968139648,-57.0750000000011,5350.390624999979
13.063759565353394,-14.16874999999962,5207.031250000105
13.064751625061035,26.23750000000058,4595.312499999893
13.066076517105103,59.35624999999867,3866.4062499998986
13.102155685424805,88.09999999999896,4365.62500000015
13.102667093276978,129.20625000000106,6995.312500000073
13.103460788726807,200.02500000000012,10904.296874999942
13.107765197753906,303.6750000000001,14471.484375000007
13.10837697982788,431.56875000000025,16692.968749999924
13.145253419876099,570.7624999999989,16839.062500000004
13.145839929580688,700.9937500000003,14087.500000000091
13.146912336349487,796.1625000000004,8967.187499999973
13.148771524429321,844.4687499999999,4114.8437499999845
13.177537441253662,862.0000000000001,1904.6875000000014
13.178330898284912,874.9437499999999,2161.7187499999845
13.184965133666992,896.5874999999999,3316.0156249999986
13.185866117477417,927.9999999999999,4297.265624999987
13.22472095489502,965.3437499999997,4420.312500000023
13.22612738609314,998.7250000000003,3094.531250000038
13.228189706802368,1014.8562500000003,364.06249999998863
13.25887656211853,1004.5500000000001,-3011.718750000007
13.259339332580566,966.6687500000002,-5992.578125000008
13.25998592376709,908.6687499999999,-7821.093750000024
13.263807535171509,841.5312499999998,-8505.078124999989
13.266515970230103,772.5875000000001,-8588.281249999987
13.30106234550476,704.11875,-8652.343750000007
13.301516771316528,634.15,-9032.812499999998
13.309080362319946,559.59375,-9344.140625000002
13.309739351272583,484.64374999999995,-8586.71875
13.353222131729126,422.20625,-6239.062499999995
13.354151487350464,384.81875,-2708.5937499999986
13.358349323272705,378.86875000000003,1500.3906249999907
13.36009669303894,408.8249999999999,7337.499999999991
13.361003637313843,496.2687499999999,18476.56250000001
13.405994415283203,704.45,39268.75000000001
13.406749248504639,1124.5687500000001,68821.09375
13.407656192779541,1805.5875,97637.10937499996
13.408561706542969,2686.7624999999994,112576.56249999999
13.452442646026611,3606.8125,105991.79687500012
13.453221559524536,4382.631250000001,79341.79687499994
13.45400071144104,4876.281249999999,39096.8749999999
13.459951877593994,5008.18125,-7828.906249999932
13.460883140563965,4751.01875,-55016.015624999905
13.46167278289795,4127.925000000001,-96625.39062499988
13.507445335388184,3205.012500000002,-127924.60937500016
13.508350372314453,2081.1312499999985,-145655.46875000023
13.509765625,874.5249999999984,-148970.70312499983
13.510900735855103,-302.39999999999867,-139821.09374999997
13.546863794326782,-1362.6125000000009,-121258.59375000013
13.550302982330322,-2242.537500000001,-96087.10937499997
13.55138874053955,-2900.0062500000004,-67830.46875
13.556390285491943,-3327.8250000000007,-41125.781249999905
13.557257890701294,-3558.018749999999,-19539.84374999993
13.55895709991455,-3640.4624999999996,-4037.5000000000227
13.601075172424316,-3622.618749999999,5843.749999999972
13.601950883865356,-3546.9625,10820.703124999909
13.602882623672485,-3449.4875000000006,12285.156250000027
13.603938817977905,-3350.3999999999996,12706.25000000004
13.642031192779541,-3246.1875,14678.124999999995
13.642778396606445,-3115.5499999999997,19278.12500000002
13.643627643585205,-2937.7374999999997,25717.96874999998
13.648711204528809,-2704.0625,32518.74999999998
13.649492979049683,-2417.4375,38214.062499999985
13.696476459503174,-2092.6375000000003,41459.765625
13.697219133377075,-1754.08125,41874.21875000002
13.698383331298828,-1422.6499999999999,40398.82812500004
13.699431657791138,-1107.6999999999994,37921.093750000015
13.700283765792847,-815.9124999999996,34230.468749999956
13.743050336837769,-560.0125,28781.249999999978
13.743664264678955,-355.4124999999999,21742.578124999967
13.744271993637085,-212.13125000000053,14016.015624999989
13.745194435119629,-131.15625000000009,6432.031250000025
13.747293949127197,-109.21875000000014,-714.4531250000146
13.788521766662598,-142.58750000000032,-6889.4531249999445
13.790422916412354,-219.44999999999925,-10849.999999999969
13.791352987289429,-316.18749999999983,-11816.406250000078
13.82223916053772,-408.5125000000005,-10057.031250000015
13.822782516479492,-477.1000000000001,-6081.249999999983
13.826558828353882,-505.8125000000002,-988.28125
13.828898668289185,-492.9125000000001,2893.750000000029
13.82954740524292,-459.51249999999976,3735.937500000009
13.866841077804565,-433.13749999999993,2076.171875000032
13.86813497543335,-426.29374999999925,156.25000000002487
13.869558095932007,-430.63749999999953,128.51562499993818
13.901001453399658,-424.23750000000024,2771.4843749999645
13.901993751525879,-386.2937500000001,7344.1406249999945
13.907910346984863,-306.73125000000033,12652.73437500003
13.908585786819458,-183.84999999999962,17532.421875000036
13.909323930740356,-26.21249999999975,20341.015624999905
13.944584846496582,141.60624999999882,19876.953124999927
13.945186138153076,291.8187499999991,17093.750000000127
13.947193384170532,415.1062500000009,14345.703125000056
13.949010610580444,521.35,12809.765624999915
13.993152379989624,620.0624999999995,11572.265625000022
13.99838137626648,706.5062500000004,9394.921875000015
14.00167441368103,770.3812499999998,6618.35937499999
14.002528429031372,812.4000000000002,4591.0156250000255
14.003422260284424,843.8375000000002,3828.1249999999573
14.05564022064209,873.6499999999995,3646.874999999994
14.056464910507202,902.1875000000001,3131.2500000000296
14.057456970214844,923.75,1854.2968749999957
14.058724403381348,931.85625,120.31249999999716
14.062626600265503,925.675,-1182.0312500000227
14.064826726913452,912.9437499999997,-1425.390624999963
14.100557327270508,902.8687500000005,-1153.9062499999773
14.101072072982788,894.48125,-1763.2812500000555
14.10169529914856,874.6562499999997,-4067.18750000001
14.102441549301147,829.4062499999999,-7340.6249999999745
14.150845050811768,757.2062500000001,-9710.54687499999
14.15163254737854,674.0375,-9525.000000000005
14.152446985244751,604.80625,-6871.875000000003
14.1534583568573,564.0875,-3678.124999999994
14.158523321151733,545.9562500000001,-1823.0468750000027
14.159524917602539,534.9187499999999,-1633.5937500000027
14.206742763519287,519.81875,-2358.203124999996
14.207586288452148,497.1875,-2552.3437500000023
14.208494424819946,478.98125,761.71875
14.209993600845337,509.375,11867.187499999996
14.210770606994629,668.8562499999999,33808.20312499999
14.249468088150024,1050.3062499999999,65029.68749999999
14.250145435333252,1709.33125,97423.43750000001
14.255226135253906,2609.08125,118377.73437499997
14.256072998046875,3603.3749999999995,117467.18750000001
14.257542371749878,4488.556250000001,92980.07812500006
14.306578636169434,5091.056250000001,51882.0312499999
14.307739019393921,5318.668749999999,3592.968750000068
14.308359622955322,5148.543750000002,-45104.296874999985
14.310580968856812,4596.999999999999,-89604.29687500016
14.349632024765015,3714.874999999999,-125266.40624999981
14.359264373779297,2592.737500000002,-147969.92187499988
14.360320806503296,1347.3562500000007,-155868.75000000023
14.3612220287323,98.83749999999836,-149512.89062500006
14.36240816116333,-1044.8500000000004,-131155.07812499994
14.398248195648193,-1999.6437500000006,-104442.96875000015
14.399134635925293,-2715.9375000000027,-74062.89062499983
14.400392532348633,-3184.649999999998,-44947.65624999974
14.435741424560547,-3435.0999999999985,-20961.718750000186
14.439923524856567,-3520.037500000001,-3972.2656250000623
14.4408597946167,-3498.6562499999995,5728.515625000114
14.445804357528687,-3428.381249999999,8903.12499999993
14.446636199951172,-3356.2062500000006,7480.4687499999145
14.44792652130127,-3308.6937500000004,4157.812500000034
14.491944551467896,-3289.68125,1730.4687500000284
14.492627143859863,-3281.00625,2895.312500000017
14.493392944335938,-3243.35625,9391.015624999995
14.494368553161621,-3130.75,20259.374999999978
14.532505512237549,-2919.20625,31820.703124999993
14.53317666053772,-2621.61875,40189.84375000002
14.534103393554688,-2276.16875,43453.124999999985
14.539143800735474,-1926.3687500000003,41962.50000000001
14.54002332687378,-1604.7687499999997,37751.953125000044
14.541982650756836,-1322.3374999999996,33397.265625
14.570336818695068,-1070.4124999999997,30279.29687499997
14.576787233352661,-837.8687500000001,27503.124999999953
14.577317953109741,-630.3625000000004,23112.500000000033
14.578151226043701,-468.06874999999957,16816.40625000003
14.613106727600098,-361.29999999999995,10513.67187499996
14.613731622695923,-299.8500000000002,5772.265624999995
14.614336967468262,-268.94375,2351.1718750000023
14.618319511413574,-262.23125000000016,-715.2343749999836
14.62931203842163,-280.38749999999976,-3848.046874999955
14.671473741531372,-323.79999999999944,-6349.609375000067
14.673167943954468,-381.98125000000084,-6841.015625000111
14.674131393432617,-433.2562500000012,-4963.2812499998945
14.675005435943604,-461.39374999999916,-2055.8593749998586
14.711981296539307,-466.14999999999895,494.92187499988916
14.712679147720337,-453.47500000000093,2588.6718749998927
14.719578981399536,-424.73125000000067,4636.328125000144
14.720487594604492,-379.2937499999986,6669.921875000039
14.721529006958008,-318.01250000000005,8630.859374999854
14.766834259033203,-241.20000000000095,10542.187500000024
14.768119812011719,-149.33749999999966,12321.484375000135
14.769491195678711,-44.0562499999988,13922.656249999996
14.771052598953247,73.4250000000003,15130.468749999902
14.814213752746582,198.03124999999966,15193.359374999993
14.815016746520996,316.5187500000002,13784.374999999958
14.817553997039795,418.581249999999,12141.796874999944
14.823856353759766,510.7874999999993,11853.515625000146
14.824843883514404,608.2375000000013,12691.796875000104
14.827873468399048,713.856250000001,12896.09374999989
14.867949485778809,814.5749999999996,11280.078124999924
14.868530035018921,894.3374999999997,8122.265625000011
14.869024753570557,944.5312499999998,4483.98437499997
14.869477033615112,966.0812499999993,1337.4999999999914
14.870163440704346,965.9312499999996,-897.6562499999332
14.907662153244019,951.7187500000003,-2148.0468749999773
14.908769130706787,931.5625,-2281.2500000000073
14.91262149810791,915.2187500000002,-1474.2187499999773
14.9140465259552,907.9750000000004,-615.625000000037
14.966976881027222,905.3687499999996,-647.6562500000398
14.96852421760559,897.6124999999997,-1706.2499999999686
15.008953094482422,878.0687500000001,-3109.7656249999873
15.009694337844849,847.8562499999999,-3928.1250000000014
15.010562419891357,815.2187500000001,-3516.4062500000027
15.017504930496216,791.5937499999999,-1996.093750000014
15.018385171890259,783.2812499999999,-403.12499999998863
15.019787311553955,785.1437500000001,174.21875000000853
15.063817501068115,786.06875,-445.3125000000071
15.064766645431519,778.01875,-1623.046875
15.065588474273682,760.1,-2305.8593749999973
15.066458940505981,741.125,-1541.015625000007
15.068347930908203,735.4437499999999,367.5781250000014
15.111545324325562,747.00625,1657.4218750000043
15.112162351608276,761.9625,1153.1249999999957
15.112779378890991,765.45625,174.60937500001705
15.117478370666504,764.7562500000003,2414.8437499999886
15.119540929794312,804.0937499999998,12906.249999999964
15.120427370071411,971.2562499999997,35755.46875000005
15.1229727268219,1376.1812500000005,69463.67187500006
15.160931587219238,2082.6750000000006,103681.24999999991
15.161998510360718,3035.0812499999993,123377.34374999988
15.162833452224731,4056.7124999999987,118480.07812500003
15.164288997650146,4930.7625,89585.54687500015
15.166001796722412,5490.081250000001,44996.484374999905
15.203418016433716,5650.706249999998,-6103.124999999977
15.204840421676636,5392.4312500000015,-57467.9687499999
15.211404085159302,4731.21875,-104784.37500000015
15.212307691574097,3715.881249999999,-143292.57812499983
15.213316917419434,2438.5375000000026,-168011.71874999988
15.263035297393799,1027.693750000001,-176110.9375000003
15.263854026794434,-379.2375000000021,-167963.67187500015
15.264640808105469,-1659.7250000000017,-146262.89062499985
15.26544451713562,-2719.44375,-115282.03124999978
15.266852378845215,-3504.2374999999984,-80357.81249999997
15.301686763763428,-4005.1687499999994,-46534.765625000146
15.302337884902954,-4248.793750000001,-17207.421874999993
15.305225849151611,-4280.487499999999,5913.671875000034
15.30587911605835,-4154.175,22024.21874999993
15.308805227279663,-3928.1000000000004,31103.515625
15.344018459320068,-3656.51875,34032.031250000015
15.344472646713257,-3383.5875,31808.984375000022
15.344921588897705,-3147.575,25203.90625000002
15.35158109664917,-2980.325,15939.843749999965
15.387619733810425,-2892.5375000000004,7407.812499999977
15.388111352920532,-2861.8,3367.9687500000455
15.388585090637207,-2838.6499999999996,5910.546875000023
15.39195966720581,-2767.23125,14246.09374999997
15.432562112808228,-2610.7125,24895.31250000002
15.433552503585815,-2368.9062499999995,33581.249999999985
15.434418439865112,-2073.4125000000004,37785.15624999997
15.435455799102783,-1764.34375,37503.90625000003
15.474430561065674,-1473.35,33773.4375
15.475223541259766,-1223.96875,27271.484375000044
15.482896566390991,-1037.0062499999992,18527.734375000044
15.487178087234497,-927.5249999999993,9065.624999999969
15.488216161727905,-891.9562499999997,1655.4687499998906
15.514879941940308,-901.037500000001,-1295.3125000000368
15.515507221221924,-912.6812500000003,598.4375000001023
15.516193628311157,-891.4624999999994,5669.921875000043
15.534412860870361,-821.9624999999996,10862.109374999989
15.542370319366455,-717.6687499999996,13167.187499999898
15.57202696800232,-611.2875000000013,11957.031249999915
15.572727918624878,-526.356250000001,9130.078125000104
15.574209690093994,-465.2062499999996,6638.281250000098
15.575942039489746,-420.1437499999994,5255.85937499995
15.596957206726074,-381.1125000000004,5185.937499999962
15.597474813461304,-337.16875,6188.281250000038
15.603225231170654,-282.0999999999998,7651.5624999999845
15.629464149475098,-214.74375000000023,9532.812500000044
15.630234479904175,-129.5749999999991,12400.390624999978
15.63295316696167,-16.33750000000056,16089.062499999862
15.651209592819214,127.84999999999869,19460.156250000084
15.65249252319336,295.0250000000008,21570.703125000087
15.688183069229126,472.9812500000001,22220.703124999905
15.689150333404541,650.5562499999993,21972.26562499999
15.690125465393066,824.5374999999999,21974.218750000047
15.691183090209961,1002.1437500000001,22690.62500000007
15.715397357940674,1187.587500000001,22875.78125000001
15.717146873474121,1368.1562500000002,20649.609374999938
15.722069263458252,1517.98125,15230.46875
15.751781225204468,1611.8437500000002,7308.203124999963
15.753160953521729,1634.9124999999995,-1651.5625000000398
15.754385232925415,1585.4187499999996,-9964.062499999984
15.777075052261353,1475.4874999999997,-15890.624999999985
15.78178334236145,1331.1687499999998,-18049.218749999978
15.78454065322876,1186.7,-16188.671874999982
15.808558702468872,1072.15,-11587.499999999998
15.809125661849976,1001.3000000000001,-6423.4374999999845
15.809627056121826,969.3750000000003,-2604.6875000000114
15.828524112701416,959.6249999999999,-1116.796875000034
15.829059362411499,951.5062499999998,-1923.4374999999843
15.858580112457275,928.8500000000001,-4197.65624999998
15.859245538711548,884.3437500000001,-6882.812500000014
15.859956741333008,818.7249999999999,-9014.45312500001
15.880125284194946,740.1125,-9726.953124999995
15.880623817443848,663.09375,-8621.09375
15.891798734664917,602.175,-6175.000000000005
15.916133165359497,564.2937499999999,-3394.53125
15.916753768920898,547.8625,-1366.0156249999957
15.919173955917358,542.4375,-1235.1562499999957
15.93523907661438,528.1,-3493.3593749999973
15.939381837844849,486.54375000000005,-6765.234374999998
15.97040605545044,419.85625000000005,-8204.296875000004
15.971060037612915,355.275,-5988.671874999991
15.971856832504272,324.0375000000002,-2085.546874999995
15.992270946502686,321.90625000000006,-2504.296875000033
15.993354797363281,283.96874999999966,-11805.078125000007
16.02127742767334,133.02499999999995,-23378.515624999956
16.021856546401978,-90.08749999999965,-17202.34374999999
16.02236771583557,-142.21249999999986,24848.82812499997
16.043116331100464,307.4937499999999,96975.78124999997
16.043567180633545,1409.3999999999996,165948.04687499997
16.049169063568115,2962.6624999999995,194175.0
16.070075035095215,4516.2,166815.23437500003
16.08000111579895,5631.70625,97531.64062500007
16.080763816833496,6076.706250000001,13522.656249999955
16.10611891746521,5848.068749999999,-62127.34375000019
16.110787868499756,5082.668749999998,-118144.53125000003
16.112497806549072,3957.756249999999,-152737.89062499974
16.139405965805054,2638.862500000002,-168303.51562499988
16.1400408744812,1264.9000000000008,-168488.28125000017
16.141139268875122,-56.9500000000005,-157102.734375
16.162484884262085,-1248.7437499999992,-137101.95312499997
16.163753509521484,-2250.5812499999997,-110473.82812500015
16.170483827590942,-3016.3250000000016,-79650.39062500012
16.198274850845337,-3524.9875000000015,-48328.515624999854
16.19930124282837,-3789.5812499999993,-20288.671874999836
16.200295448303223,-3849.606249999999,1716.0156250000114
16.223052263259888,-3762.124999999999,15830.468749999936
16.223702669143677,-3596.31875,21454.68749999995
16.230259895324707,-3418.85,19972.65625
16.26169753074646,-3276.75625,14638.671875
16.262446641921997,-3184.63125,10206.640625000005
16.263325929641724,-3113.45,11325.781250000005
16.28831386566162,-3003.41875,19010.156249999993
16.288959980010986,-2809.2875,29501.17187499998
16.290045738220215,-2531.4,37960.9375
16.325361490249634,-2201.9125,42182.03125000002
16.326316833496094,-1856.4874999999997,42470.31250000001
16.32758665084839,-1522.3874999999998,39766.79687499997
16.353421926498413,-1220.2187500000002,34582.03124999998
16.35419249534607,-969.0750000000002,27056.250000000025
16.354915380477905,-787.3187499999998,17835.937500000015
16.36087465286255,-683.6999999999999,8743.359374999976
16.392069578170776,-647.4250000000002,2046.4843749999914
16.39285445213318,-650.9562500000001,-1005.8593749999716
16.393500566482544,-663.5187499999997,-786.3281249999616
16.421180725097656,-663.5374999999995,1116.7968749999914
16.42189621925354,-645.6499999999999,2831.2499999999545
16.42642116546631,-618.2375000000002,3473.8281249999686
16.45236849784851,-590.0687500000004,3655.468750000054
16.452975749969482,-559.7499999999993,4408.984374999982
16.45347547531128,-519.5250000000007,5689.453124999911
16.476101875305176,-468.71875000000074,6141.015625000079
16.47783613204956,-421.2687499999994,4782.812500000013
16.480760097503662,-392.19375000000053,2684.7656249999723
16.50772976875305,-378.31249999999983,1717.5781250000632
16.50823473930359,-364.7124999999995,2148.0468750000305
16.509833574295044,-343.94374999999934,3059.7656249999864
16.528868675231934,-315.75624999999974,4110.156249999885
16.529372692108154,-278.18125000000117,5344.1406249999945
16.556185483932495,-230.24999999999983,6289.843750000081
16.556811571121216,-177.54374999999987,6445.31249999991
16.559791088104248,-127.12500000000126,6441.406250000003
16.57603883743286,-74.48124999999983,7858.9843750001
16.581390380859375,-1.3812499999996675,11380.468749999984
16.606204748153687,107.6062499999999,15917.578125000051
16.606752395629883,253.30000000000118,19893.75000000004
16.627885818481445,425.90625000000057,22283.593749999887
16.628390312194824,609.8374999999994,22733.593749999945
16.634348154067993,789.6437499999997,21973.046875000007
16.6598219871521,961.4062499999995,21545.70312500003
16.660338163375854,1134.3750000000002,22254.68750000003
16.66123652458191,1317.48125,23406.640624999978
16.68209958076477,1508.88125,23896.09375000002
16.682576417922974,1699.8187500000004,23201.953125000004
16.711577892303467,1880.1125,20787.499999999953
16.71219491958618,2032.4187499999996,15403.515624999969
16.712989568710327,2126.5687499999995,6276.171875000031
16.730576038360596,2132.8375,-5056.249999999977
16.73128604888916,2045.6687499999998,-15238.281250000015
16.741870641708374,1889.0249999999999,-21815.62499999998
16.777459621429443,1696.61875,-24878.515624999993
16.778167486190796,1490.96875,-25959.76562500002
16.778790950775146,1281.2624999999998,-26170.703125000004
16.78076410293579,1072.2375,-25791.79687499999
16.796689987182617,868.59375,-24868.74999999997
16.800145149230957,674.3375000000004,-23483.59375
16.830759286880493,492.85625,-21627.34375000005
16.832019567489624,328.2999999999996,-18920.312499999978
16.83299970626831,190.1312500000003,-13574.218749999978
16.850986003875732,111.11249999999994,-1323.8281250000377
16.851460933685303,168.9499999999997,22466.79687500003
16.88287091255188,470.5812500000004,57348.43750000001
16.883676052093506,1086.5249999999999,94314.45312499997
16.884349584579468,1979.6125,118661.32812500003
16.904569625854492,2985.1062500000003,117874.21874999997
16.905229330062866,3865.5999999999995,88877.34374999994
16.913301944732666,4407.143749999999,38993.74999999998
16.932826280593872,4489.499999999999,-19211.32812499991
16.93337368965149,4099.762500000001,-73658.98437499981
16.940840005874634,3310.956250000002,-115707.03125000015
16.96224355697632,2248.4499999999985,-141042.18750000017
16.962838649749756,1054.2812499999989,-149494.14062499988
16.991350650787354,-143.45624999999984,-144051.95312499994
16.99186944961548,-1250.5500000000004,-128842.18749999988
16.992318391799927,-2204.931249999998,-106857.81249999993
17.01310682296753,-2960.274999999999,-79953.12500000017
17.013643264770508,-3484.1812500000005,-50803.906250000095
17.020092964172363,-3773.1375000000007,-23317.57812500001
17.042493104934692,-3857.2625000000007,-756.6406249999602
17.04314136505127,-3785.24375,15468.750000000085
17.06069827079773,-3609.7624999999994,24947.656249999993
17.061251163482666,-3386.08125,27711.328124999993
17.094038724899292,-3166.3812499999995,25228.906250000022
17.094849586486816,-2982.41875,20835.54687499995
17.095824480056763,-2833.0125000000003,18516.79687499998
17.118805646896362,-2686.15,21080.468750000022
17.119773387908936,-2495.725,28736.718750000022
17.12048649787903,-2226.3624999999997,38951.171875000015
17.158539295196533,-1872.5062499999997,47817.96874999998
17.15936589241028,-1461.275,52091.015624999956
17.160123586654663,-1039.0500000000004,50494.140624999985
17.161259174346924,-653.3687500000003,43683.98437500004
17.182665586471558,-340.1062499999998,33615.23437500003
17.18327021598816,-115.52499999999988,22811.328124999975
17.193029642105103,24.87499999999976,13249.999999999984
17.224483251571655,96.47499999999987,5476.953125000016
17.225348711013794,112.50625000000002,-953.515624999957
17.226378440856934,81.21875000000055,-6312.109374999985
17.253557682037354,11.512500000000259,-10306.250000000071
17.257874011993408,-83.68125000000059,-12633.203125000047
17.259726524353027,-190.6187500000005,-13587.499999999973
17.261298656463623,-301.0812500000002,-13797.265624999944
17.283508777618408,-411.3749999999996,-13244.921874999982
17.284281969070435,-512.9999999999999,-11177.734375000025
17.306040048599243,-590.21875,-7304.2968750000055
17.310201168060303,-629.86875,-2454.6874999999986
17.312203645706177,-629.49375,2063.671875000004
17.33930540084839,-596.8499999999999,5045.312500000008
17.340056657791138,-548.7687499999998,5531.249999999989
17.34216833114624,-508.3500000000001,3564.0624999999663
17.3663170337677,-491.7437500000004,983.2031249999993
17.367042303085327,-492.6187500000001,423.82812500002484
17.372323513031006,-484.9625,2905.4687500000823
17.40331768989563,-446.1312499999988,6903.5156250000255
17.404049396514893,-374.50624999999957,10220.703124999896
17.40494465827942,-282.6000000000004,12136.718749999996
17.430408239364624,-180.31874999999962,13125.781249999969
17.43122911453247,-72.58750000000092,13446.093749999942
17.43207359313965,34.818749999999454,13193.359375000102
17.46852707862854,138.5062500000007,12826.95312500004
17.469409942626953,240.0500000000001,12538.281249999894
17.470067501068115,339.118749999999,11877.343749999936
17.471226930618286,430.08749999999907,10451.562500000122
17.49644708633423,506.34375000000097,8466.406250000055
17.49720859527588,565.55,6704.296874999901
17.502222776412964,613.6124999999994,6166.015625000021
17.529284477233887,664.2062500000003,7272.265625000053
17.529990196228027,729.9687500000002,9117.968749999982
17.53229570388794,810.09375,9965.234374999965
17.55173349380493,889.4124999999997,8875.000000000022
17.552780628204346,952.0937500000003,6299.609375000017
17.561184644699097,990.20625,3087.49999999997
17.584273099899292,1001.4937499999999,28.515625000004263
17.58517050743103,990.6625,-1926.5624999999816
17.603251457214355,970.6687500000002,-2223.046874999973
17.6037654876709,955.0937500000005,-1367.5781250000157
17.611908435821533,948.7874999999999,-715.6250000000525
17.637038946151733,943.6437499999996,-1454.6874999999986
17.63768482208252,925.5124999999999,-3196.484374999976
17.658539056777954,892.5,-3710.5468749999914
17.659324169158936,866.1437500000001,-178.51562499999574
17.66430687904358,889.6437500000001,10783.984374999996
17.688764095306396,1038.6875,34648.828124999985
17.689316034317017,1444.0249999999999,75935.9375
17.690823078155518,2253.6625,128176.17187500001
17.709947109222412,3494.84375,168843.75000000003
17.715564489364624,4955.1625,171577.73437500003
17.74051022529602,6240.087500000001,126507.81249999988
17.7420756816864,6979.2874999999985,47592.9687499999
17.742533445358276,7001.574999999999,-38716.01562499984
17.763343811035156,6359.831250000001,-110261.32812499997
17.76752519607544,5237.393749999999,-157543.35937500012
17.786266565322876,3839.1374999999994,-181264.45312499985
17.795907020568848,2337.1625000000017,-185880.85937499985
17.796553373336792,865.0437500000016,-175921.0937500002
17.823776483535767,-477.57500000000164,-155542.9687500003
17.824389219284058,-1623.643750000003,-128743.35937499981
17.829932689666748,-2537.4687499999986,-99283.59374999985
17.832071781158447,-3212.1812500000005,-70335.54687499997
17.862169981002808,-3662.8374999999983,-44040.23437499993
17.862913370132446,-3916.8249999999994,-21403.51562500021
17.863760709762573,-4005.2937500000016,-2536.7187499999486
17.885231733322144,-3957.4124999999985,12534.375000000096
17.88979697227478,-3804.74375,22941.01562499986
17.892016887664795,-3590.3562500000007,27718.75000000003
17.921486616134644,-3361.2437499999996,27424.609375000073
17.922144174575806,-3151.5624999999995,23541.01562499997
17.92299175262451,-2984.5875,16869.140625
17.94603180885315,-2881.6562499999995,8519.53125
17.9466769695282,-2848.275,1823.0468749999886
17.95171594619751,-2852.4874999999997,975.390625000017
17.984368324279785,-2832.66875,7406.640624999965
17.985111951828003,-2733.9812500000003,18433.984374999993
17.98576593399048,-2537.725,29639.06250000005
18.00922966003418,-2259.7562499999995,37838.28124999999
18.009727239608765,-1932.3125,41705.46874999996
18.01492929458618,-1592.46875,41088.28125000002
18.040345191955566,-1274.8999999999996,36921.093750000015
18.041048049926758,-1001.7312499999997,30948.828124999935
18.04298973083496,-779.7187500000007,24578.12499999995
18.06440234184265,-608.4812500000005,18275.78125000007
18.064911127090454,-487.3062499999996,12108.984375000073
18.071630001068115,-414.73749999999933,6432.031250000023
18.097447156906128,-384.3937499999992,2073.4374999998868
18.098085403442383,-381.56250000000114,-176.5625000000881
18.11850380897522,-387.2187500000006,-475.781249999919
18.1195867061615,-389.17499999999984,-53.12499999998721
18.121546745300293,-388.0687500000004,-23.04687499998792
18.151941776275635,-389.54374999999965,-292.1874999999296
18.15263319015503,-392.7437499999993,-122.2656250000611
18.153342485427856,-391.5000000000006,526.5624999999403
18.174272537231445,-384.31875000000025,888.6718750000817
18.175230979919434,-377.2812499999993,594.5312499999744
18.20392370223999,-374.80625000000066,588.6718749999993
18.204434156417847,-367.86249999999933,2385.5468750000314
18.20498251914978,-336.63750000000016,6151.953124999945
18.225117444992065,-269.4312500000002,10011.328125000053
18.22563648223877,-176.4562499999993,11792.578125000005
18.233731269836426,-80.7500000000001,11208.593749999938
18.256245613098145,2.8812499999997243,9823.828124999935
18.25721049308777,76.43124999999884,9382.81250000006
18.280898332595825,153.00625000000068,10809.765625000135
18.28178834915161,249.38750000000098,13924.60937499995
18.286749362945557,375.7999999999999,17243.74999999989
18.31869387626648,525.2874999999992,18945.70312499999
18.31958532333374,678.9312499999997,18599.60937500005
18.320783615112305,822.88125,17086.71875000001
18.346134424209595,952.3187499999999,14926.953125000033
18.354002237319946,1061.7125000000005,11939.453125
18.35498547554016,1143.35,8423.437499999964
18.358241081237793,1196.4875,5483.203125000003
18.378159761428833,1231.08125,3980.859375000037
18.378634214401245,1260.1812500000005,3610.1562499999886
18.385852813720703,1288.8437499999998,3125.3906249999372
18.405657529830933,1310.1874999999995,1535.9375000000312
18.406113147735596,1313.4187500000003,-996.4843749999659
18.412243843078613,1294.24375,-3544.1406250000255
18.439430952072144,1256.7124999999999,-5223.8281250000255
18.44008159637451,1210.6624999999997,-5531.249999999985
18.442180395126343,1168.2125,-4727.3437499999745
18.46158504486084,1135.025,-4216.015625000011
18.46208381652832,1100.75625,-5785.937500000003
18.494213104248047,1042.45,-9905.468749999996
18.49482750892639,942.26875,-14857.812500000002
18.495565176010132,804.725,-17066.015625000004
18.515451908111572,669.2124999999999,-11220.703125
18.516555070877075,625.19375,9265.234375000005
18.522223472595215,817.45625,48887.109374999985
18.5484676361084,1407.3874999999998,103361.71875
18.549289226531982,2471.24375,154737.89062500003
18.57076597213745,3883.1937500000004,176907.42187500003
18.57124090194702,5301.762500000001,152412.4999999999
18.571715116500854,6321.793749999999,86033.59374999985
18.601846933364868,6678.299999999998,666.7968750001592
18.602336645126343,6332.4625000000015,-78859.76562499974
18.603049755096436,5416.543750000003,-137326.1718750003
18.623273611068726,4135.243749999997,-170380.85937500026
18.623775720596313,2690.4499999999985,-180999.60937499968
18.654632806777954,1239.250000000002,-175263.28124999988
18.655198574066162,-113.76249999999999,-158771.0937500002
18.655693292617798,-1301.0875000000012,-135425.39062500003
18.68034029006958,-2280.5687500000004,-108291.40624999978
18.685134887695312,-3033.7499999999977,-80031.64062499991
18.68585443496704,-3561.074999999999,-52648.04687500012
18.715254545211792,-3876.1187499999996,-27798.046875000095
18.71615982055664,-4005.8437500000005,-6842.187500000108
18.71670389175415,-3985.5937500000014,9731.249999999989
18.734312772750854,-3850.1437500000006,21776.171875000044
18.73918604850769,-3637.1750000000006,28482.81250000011
18.745437622070312,-3394.418749999999,29002.734375000102
18.77863907814026,-3173.131249999999,24028.515624999927
18.779457807540894,-3009.9625,16237.10937499993
18.780391693115234,-2913.3375,8989.062500000016
18.80567502975464,-2866.1375,4996.09375
18.80632448196411,-2833.4,6066.015624999977
18.807194709777832,-2769.08125,12549.609374999989
18.813972234725952,-2632.6062500000003,22739.843750000004
18.8340744972229,-2405.24375,33680.468750000015
18.834723472595215,-2093.71875,42338.28125000004
18.8525230884552,-1727.8312499999995,46468.750000000015
18.8532657623291,-1350.2187499999998,45564.06249999995
18.863394021987915,-998.8062500000003,40582.81249999995
18.887816429138184,-700.8937500000005,32471.87500000004
18.888412952423096,-479.2562499999997,21998.828125000033
18.9067120552063,-348.91249999999997,10960.937499999989
18.90735960006714,-303.88124999999985,2201.1718750000177
18.931214332580566,-313.6937499999997,-2298.046875000015
18.931725025177002,-340.6500000000001,-3078.90625000001
18.947771549224854,-362.95624999999984,-2220.7031250000036
18.948256492614746,-376.18125000000015,-1082.8125000000312
18.957585096359253,-380.28125000000034,-171.4843749999737
18.9860897064209,-378.9249999999997,-64.84374999998721
18.986878633499146,-381.31875000000014,-869.1406250000426
18.987345933914185,-392.8312500000004,-1795.31249999998
19.00963258743286,-410.0437499999998,-1959.7656249999993
19.010101795196533,-424.1875000000004,-821.8749999999701
19.016469478607178,-423.19374999999934,1780.4687500000432
19.038779258728027,-395.6999999999997,5357.421874999879
19.03930115699768,-337.4750000000013,8876.562500000018
19.05990719795227,-253.67499999999941,11348.828125000153
19.060423374176025,-155.89374999999882,12490.624999999976
19.06747555732727,-53.82499999999979,12942.968749999893
19.08931803703308,51.19374999999948,13339.453124999956
19.089868307113647,159.6062499999995,13362.500000000056
19.107867002487183,264.9937500000004,12546.093750000042
19.108371257781982,360.34375000000017,11448.046875000005
19.113612413406372,448.1625000000005,11044.53124999993
19.138979196548462,537.0562499999991,11616.796874999942
19.139612436294556,634.0312499999995,12825.390625000104
19.16119146347046,742.2625000000007,13921.875000000027
19.16174077987671,856.78125,13732.812499999965
19.162845134735107,961.9875000000002,11509.765624999944
19.19256830215454,1040.937499999999,7881.64062499996
19.19315457344055,1088.0937499999995,4426.953125000083
19.193819761276245,1111.7687500000004,2282.0312500000455
19.22090721130371,1124.6062500000003,1194.5312499999686
19.22603964805603,1130.88125,-138.28125000004832
19.226927280426025,1122.3937499999995,-2706.6406249999914
19.25955843925476,1087.575,-6187.109374999963
19.260352611541748,1023.4000000000001,-9338.671875000002
19.261557579040527,938.15625,-11096.875000000004
19.287192583084106,845.85,-11164.843750000002
19.287837505340576,759.51875,-9876.953125000007
19.288525104522705,687.8187499999999,-7942.578125000005
19.29619026184082,632.4374999999999,-6421.09374999999
19.316840887069702,585.0812500000001,-6260.546874999988
19.31743621826172,532.2687500000001,-7027.734375000008
19.32624340057373,472.63749999999993,-6221.875000000001
19.348531484603882,432.71875000000006,-87.89062499999645
19.353647470474243,471.23125,15822.265624999996
19.355351448059082,685.875,45992.1875
19.377805948257446,1207.10625,89849.609375
19.378352165222168,2123.46875,134515.625
19.39544939994812,3359.3562500000003,156771.09375000003
19.396450996398926,4631.806250000001,137769.92187500006
19.42643141746521,5563.675000000001,77544.53124999991
19.427170038223267,5872.518749999999,-4520.703125000182
19.428266048431396,5491.343749999998,-82250.39062499985
19.448771238327026,4556.512500000002,-136860.54687499988
19.44937252998352,3301.575,-163177.34375000026
19.45582342147827,1945.6749999999977,-166130.85937499994
19.488078117370605,643.4812500000006,-153362.89062499974
19.488861083984375,-508.13124999999815,-131002.34375000007
19.490219831466675,-1452.5562500000005,-103629.68750000025
19.522192001342773,-2166.206250000002,-75137.89062499987
19.52575421333313,-2654.7624999999985,-48806.640624999825
19.52672052383423,-2947.1124999999993,-26873.437500000164
19.527940034866333,-3084.737500000001,-10048.437500000062
19.551177740097046,-3107.8875000000003,2370.703125000091
19.551995277404785,-3046.8062499999996,11544.531250000091
19.554323196411133,-2923.174999999999,18040.624999999978
19.582290410995483,-2758.15625,21464.062499999898
19.583503007888794,-2579.7500000000005,21139.45312499999
19.584507942199707,-2419.925,17514.45312500002
19.60618567466736,-2299.51875,12785.15625
19.60666561126709,-2215.3625,9716.796875
19.62515115737915,-2144.05,9947.656250000051
19.625617265701294,-2056.1999999999994,13546.093750000011
19.633454084396362,-1927.3125,19330.85937499996
19.658509254455566,-1746.90625,25142.187499999993
19.659199237823486,-1525.0375000000001,28940.23437500002
19.68050527572632,-1283.8624999999997,30171.48437500002
19.681631803512573,-1042.2937499999998,29352.34374999996
19.68650770187378,-814.2250000000004,26766.796874999996
19.70905637741089,-614.0249999999999,22625.00000000006
19.709513664245605,-452.2249999999994,17792.968750000004
19.72763729095459,-329.3374999999998,13215.62499999995
19.728152751922607,-240.77500000000018,9119.921874999962
19.73340630531311,-183.41875000000041,5465.6249999999745
19.749086618423462,-153.32500000000059,2568.3593750000514
19.756936073303223,-142.3249999999996,667.187500000054
19.776334285736084,-142.64999999999972,-658.2031250000338
19.776862382888794,-152.85625000000013,-1957.4218750000316
19.806049585342407,-173.96875000000023,-3146.874999999994
19.80655550956726,-203.20625000000004,-3941.7968749999586
19.80717444419861,-237.03749999999957,-4567.578125000027
19.835026502609253,-276.2875000000005,-5567.968750000041
19.835716009140015,-326.1250000000002,-7273.828124999934
19.840654611587524,-392.6687499999994,-9303.906249999993
19.873263597488403,-474.9875000000001,-10404.68750000007
19.87533974647522,-559.1437500000005,-9255.859374999955
19.87615203857422,-623.0812499999994,-5334.76562499996
19.87711477279663,-644.4999999999999,1033.203124999936
19.90032148361206,-606.5500000000004,8612.500000000025
19.900856494903564,-506.6999999999995,15344.921875000033
19.905524730682373,-361.0312499999999,19435.15624999992
19.93114399909973,-195.73750000000078,20418.749999999985
19.93195939064026,-34.331250000000146,19169.53125000009
19.95255398750305,110.9750000000007,17008.203125000007
19.953062295913696,237.8,14708.593749999942
19.954526662826538,346.3124999999998,12743.359374999982
19.985188961029053,441.69374999999974,11948.828124999976
19.985841751098633,537.4937499999994,12622.656250000031
19.986526250839233,643.6562500000002,13555.859375000033
20.007734298706055,754.3874999999999,12937.109374999976
20.00819158554077,850.6499999999999,9755.468750000055
20.014124393463135,910.4750000000008,4427.734374999993
20.035831689834595,921.4937499999997,-1125.7812500000668
20.036553382873535,892.4624999999997,-4298.43749999997
20.05149531364441,852.7187500000002,-3801.1718749999873
20.05537724494934,831.64375,-1227.7343750000114
20.08444905281067,833.075,23.82812499998721
20.085411310195923,832.0249999999997,-2210.156250000004
20.08672332763672,797.7125,-7192.1874999999745
20.10640573501587,716.9500000000002,-12406.640624999987
20.107074737548828,599.2062500000002,-15389.45312500002
20.134974479675293,470.71874999999983,-14744.92187500002
20.13578772544861,363.28749999999985,-10571.874999999987
20.1364688873291,301.56875,-3294.921874999986
20.15122413635254,310.5687500000001,8984.374999999996
20.155184268951416,445.31874999999997,30282.81249999999
20.18248748779297,795.0937499999999,61056.640625000015
20.18315601348877,1422.2250000000001,92503.90624999997
20.184232711791992,2275.1562499999995,109300.39062499999
20.201587438583374,3171.03125,100393.75000000004
20.203998565673828,3881.45625,66947.65624999997
20.23501753807068,4242.193749999999,19877.73437499999
20.23633074760437,4199.5,-28211.7187499999
20.23693561553955,3790.806250000001,-68525.78125000004
20.264166116714478,3103.087499999999,-97015.62500000006
20.264883041381836,2238.55625,-113027.73437499993
20.269941806793213,1294.6437500000004,-117739.453125
20.297274351119995,354.7250000000002,-112917.18750000001
20.29819965362549,-512.0312499999997,-100264.45312500009
20.299912691116333,-1249.5062500000013,-81952.73437500006
20.31707787513733,-1823.2750000000005,-60937.499999999854
20.32203221321106,-2224.506249999999,-39726.95312499996
20.32391333580017,-2458.90625,-19957.03125000006
20.36444067955017,-2543.81875,-3536.3281249999827
20.365501880645752,-2515.4874999999997,7483.593749999983
20.39118266105652,-2424.08125,12471.875000000011
20.393953323364258,-2315.9374999999995,12691.015625000005
20.398191928863525,-2221.025,9949.99999999996
20.39924907684326,-2156.7375,5507.4218750000055
20.401114225387573,-2132.90625,819.5312500000114
20.417457580566406,-2143.625,-1809.765624999983
20.429055213928223,-2161.8624999999997,-335.9375
20.429662704467773,-2149.0,5692.578124999983
20.43738293647766,-2070.78125,14896.87500000001
20.464532375335693,-1910.6499999999999,24784.765625000004
20.465224981307983,-1674.225,32942.187499999985
20.46678066253662,-1383.575,37885.93749999997
20.476099491119385,-1068.0500000000004,38986.718750000015
20.511391162872314,-759.7874999999998,35893.359375000044
20.51367425918579,-493.7562499999997,28679.687499999993
20.514294862747192,-300.9124999999999,18800.781249999953
20.516443014144897,-192.94375000000042,9086.71875
20.536296844482422,-155.52499999999992,2207.42187500006
20.53686761856079,-157.62499999999946,-752.3437500000493
20.548095226287842,-167.5625000000007,-576.9531250000562
20.557525873184204,-166.85625000000036,727.7343750000664
20.586694717407227,-155.91874999999965,1286.3281250000132
20.596003770828247,-146.27500000000015,776.171874999953
20.59685182571411,-143.5000000000004,425.39062500002166
20.604429483413696,-139.4687499999998,1181.2500000000225
20.607998371124268,-124.60000000000004,2287.890625000011
20.637441396713257,-102.86249999999963,2390.6250000000346
20.638400077819824,-86.34999999999948,1594.9218749999322
20.64441156387329,-77.34375000000071,1288.671874999981
20.645203590393066,-65.73124999999979,1979.687500000049
20.6762535572052,-45.668749999999925,2310.1562499999723
20.676902770996094,-28.76875000000023,728.1250000000239
20.67788600921631,-34.01874999999954,-2196.484374999974
20.697914361953735,-63.91249999999982,-4018.3593750000578
20.698442220687866,-98.31250000000047,-2996.0937500000396
20.706186056137085,-111.85000000000045,601.9531250000547
20.729292154312134,-88.6812499999996,5499.609375000047
20.736520051956177,-23.85624999999969,10380.46874999998
20.73745346069336,77.40625000000011,14098.828124999962
20.76047444343567,201.7249999999997,16205.46875000001
20.76098084449768,336.69375000000025,17237.50000000002
20.767375707626343,477.525,17643.749999999953
20.79269051551819,618.9937499999995,16521.875000000015
20.793257236480713,741.8750000000002,12282.81250000002
20.79612159729004,815.5187499999998,4907.0312499999745
20.817795276641846,820.3874999999998,-3054.687499999986
20.81854820251465,766.6437500000001,-8441.406249999978
20.826175689697266,685.3250000000002,-10130.468749999984
20.858543395996094,604.5562500000003,-9053.906250000018
20.8594753742218,540.4624999999999,-6390.234375000024
20.86032009124756,502.31249999999994,-2809.76562499999
20.884193897247314,495.50625,1030.4687499999866
20.88492512702942,518.7999999999997,3960.1562500000114
20.885721683502197,558.8687500000002,4586.718750000024
20.89517092704773,592.1875000000001,2397.2656249999814
20.932053565979004,597.2249999999999,-1489.0625000000027
20.932852029800415,568.3625000000001,-4608.593750000005
20.933836936950684,523.4874999999998,-4899.21875000001
20.935957670211792,489.9749999999999,-2941.406249999989
20.97261643409729,476.425,-1162.4999999999943
20.973251581192017,471.375,-394.92187500000495
20.97389316558838,470.10624999999993,684.3749999999993
20.99972677230835,482.325,2646.8750000000014
21.000396490097046,512.45625,4342.578125000006
21.001148462295532,551.8062500000001,5164.062500000007
21.008187532424927,595.0812500000001,6783.593749999987
21.04574680328369,660.3437499999999,13151.953124999984
21.046417713165283,805.5124999999998,29639.843750000004
21.047706365585327,1134.58125,59332.031250000015
21.04865527153015,1754.825,96167.57812499999
21.078758239746094,2673.2625,122858.20312499997
21.07942819595337,3720.5562499999996,120730.85937500007
21.083465099334717,4604.956250000001,83842.57812499999
21.088543176651,5062.037499999999,22859.374999999887
21.11512017250061,4970.706249999999,-43242.578124999905
21.115720987319946,4370.156250000001,-97654.68749999985
21.1166410446167,3408.2312500000016,-131233.59374999997
21.133068561553955,2270.418750000001,-143252.73437500015
21.137511491775513,1116.1874999999989,-139095.7031250002
21.168142080307007,44.88749999999797,-125673.04687500004
21.169158220291138,-894.5812500000017,-107423.04687499993
21.16978096961975,-1673.8812500000008,-86158.20312499988
21.182108163833618,-2273.1124999999997,-63369.531249999876
21.18635869026184,-2687.793749999999,-40907.421874999956
21.214667558670044,-2927.631249999999,-19840.23437500005
21.215322017669678,-3005.2374999999997,-584.7656249999886
21.216830730438232,-2936.987499999999,15702.343750000011
21.235152006149292,-2753.9999999999995,26939.84374999991
21.235892295837402,-2505.9500000000003,31187.109374999978
21.263205766677856,-2255.00625,27810.546875
21.26392889022827,-2060.9812500000003,18493.35937500001
21.26565432548523,-1959.1124999999997,7210.546875000034
